0.013494 0.003094 0.494581 0.985425 0.194878 0.000128 0.974693 0.023144 0.138495
0.995179 0.000127 0.002603 0.001199 0.001889 0.012701 0.000678 0.008660 0.024858
0.725746 0.001343 0.003800 0.000901 0.032865 0.031009 0.000960 0.112396 0.011659
0.172572 0.026149 0.725342 0.985915 0.157344 0.005987 0.050144 0.042000 0.050692
0.034787 0.952649 0.021179 0.060169 0.003706 0.009041 0.300080 0.279436 0.002766
0.067989 0.001049 0.005695 0.036869 0.003296 0.067830 0.915057 0.119945 0.003110
0.134094 0.056627 0.215995 0.951948 0.249293 0.014311 0.207333 0.094393 0.080557
0.087599 0.000242 0.028365 0.282290 0.215138 0.029411 0.912138 0.022022 0.053898
0.004011 0.003076 0.006624 0.063995 0.002838 0.707213 0.003866 0.045954 0.054617
0.935674 0.001200 0.410439 0.986428 0.029117 0.007316 0.015615 0.013642 0.016579
0.156298 0.001362 0.026850 0.057957 0.247961 0.058783 0.001435 0.061730 0.523661
0.930527 0.001483 0.009528 0.002814 0.048451 0.090955 0.001690 0.004828 0.007496
0.026354 0.000073 0.014255 0.019021 0.025139 0.042515 0.000541 0.333136 0.098400
0.418804 0.000093 0.011219 0.015809 0.051546 0.021620 0.000184 0.021378 0.165388
0.032246 0.953068 0.014969 0.042691 0.012586 0.058266 0.008304 0.044178 0.002142
0.854677 0.000569 0.003777 0.002923 0.182862 0.035121 0.001521 0.033855 0.020056
0.921652 0.000414 0.002610 0.002340 0.036918 0.017796 0.000770 0.015035 0.024815
0.866027 0.000824 0.002342 0.001343 0.002020 0.068835 0.001447 0.093576 0.010925
0.122418 0.854998 0.044344 0.061676 0.003039 0.156916 0.051775 0.408353 0.004749
0.104624 0.003783 0.011019 0.016102 0.035214 0.079543 0.002774 0.237025 0.018674
0.652060 0.000661 0.002955 0.006432 0.417594 0.056135 0.003275 0.017255 0.067389
0.550069 0.013628 0.178351 0.072118 0.878513 0.012961 0.133195 0.041075 0.011032
0.259941 0.000137 0.020772 0.007664 0.027890 0.018682 0.000242 0.054262 0.236176
0.033987 0.000310 0.034412 0.070141 0.943510 0.122902 0.001605 0.086340 0.450277
0.670601 0.000081 0.004384 0.003190 0.021834 0.036513 0.000384 0.038285 0.058613
0.254383 0.002570 0.004535 0.004066 0.447881 0.170351 0.003066 0.085505 0.012639
0.026683 0.005431 0.008448 0.023085 0.028547 0.041337 0.001173 0.357385 0.078143
0.991283 0.000188 0.002049 0.001321 0.001609 0.026962 0.001227 0.025618 0.006225
0.170121 0.001348 0.004511 0.002804 0.951218 0.014288 0.024701 0.009427 0.005061
0.041388 0.980981 0.015302 0.280096 0.015384 0.020005 0.033417 0.134602 0.005306
0.966878 0.000253 0.001395 0.001077 0.002134 0.020414 0.000834 0.062440 0.009403
0.047793 0.000970 0.023198 0.015533 0.010050 0.001437 0.990688 0.086134 0.003344
0.010738 0.877239 0.040036 0.013130 0.387891 0.041461 0.003596 0.028419 0.007182
0.288664 0.032425 0.796664 0.014001 0.056853 0.042214 0.001145 0.029804 0.025753
0.055906 0.065051 0.033115 0.004203 0.043095 0.557055 0.006039 0.018227 0.012221
0.858717 0.011496 0.019256 0.063480 0.203382 0.048960 0.021216 0.057090 0.095394
0.400494 0.004398 0.010969 0.045649 0.021089 0.116307 0.005082 0.227108 0.014274
0.772982 0.018990 0.900089 0.002406 0.031351 0.013153 0.001671 0.012776 0.002385
0.264289 0.003935 0.010493 0.014520 0.925420 0.010278 0.120979 0.031317 0.008166
0.010272 0.943734 0.016631 0.022864 0.575539 0.098661 0.025376 0.090151 0.013143
0.122315 0.044473 0.146556 0.993135 0.017675 0.027428 0.090510 0.045352 0.025709
0.404253 0.138181 0.008714 0.041535 0.119565 0.022640 0.003774 0.161388 0.012070
0.770485 0.001465 0.007869 0.005965 0.610945 0.058063 0.003516 0.004657 0.008037
0.529514 0.000979 0.003269 0.003403 0.591978 0.039691 0.001298 0.012584 0.019648
0.051523 0.000947 0.012787 0.019238 0.904560 0.080227 0.004532 0.069764 0.163563
0.025323 0.969010 0.006227 0.006356 0.074529 0.096749 0.033572 0.035897 0.004888
0.578269 0.003658 0.009271 0.003354 0.040842 0.149571 0.003073 0.018230 0.010368
0.011364 0.960975 0.042634 0.113302 0.124637 0.082460 0.021696 0.080188 0.012311
0.691332 0.015604 0.345750 0.003604 0.607789 0.022372 0.002782 0.010497 0.005325
0.042559 0.004011 0.012781 0.014139 0.021833 0.052737 0.001099 0.361616 0.048381
0.004061 0.859351 0.050908 0.092504 0.926725 0.019895 0.053454 0.097118 0.024467
0.941804 0.000095 0.003296 0.001152 0.035294 0.021997 0.000663 0.013194 0.049862
0.184846 0.000872 0.006536 0.005481 0.953840 0.008713 0.064909 0.010337 0.015002
0.026909 0.904268 0.097925 0.143720 0.047150 0.036613 0.148067 0.217316 0.007107
0.002590 0.019269 0.091236 0.061681 0.951633 0.016258 0.648711 0.071063 0.021152
0.976898 0.000293 0.005387 0.001350 0.050364 0.022527 0.000844 0.014634 0.008178
0.035931 0.940019 0.013836 0.036095 0.022829 0.157265 0.011252 0.126949 0.003751
0.011945 0.006694 0.010064 0.053410 0.624715 0.151893 0.003447 0.143104 0.178901
0.955413 0.000237 0.002176 0.002158 0.010729 0.021462 0.000315 0.030861 0.010746
0.000121 0.977057 0.006161 0.086797 0.678587 0.095401 0.010066 0.057946 0.012287
0.955019 0.000878 0.004957 0.001920 0.044261 0.027786 0.000675 0.016116 0.067416
0.873062 0.001015 0.010104 0.001473 0.092004 0.040698 0.002000 0.013243 0.015786
0.045486 0.968412 0.026281 0.024824 0.008390 0.049027 0.010442 0.072871 0.003019
0.046735 0.029153 0.001334 0.023489 0.677466 0.184930 0.474271 0.025669 0.003595
0.017944 0.973519 0.006243 0.006954 0.830067 0.026084 0.053786 0.012489 0.002201
0.013515 0.027015 0.527748 0.525215 0.019532 0.038209 0.603988 0.303756 0.024989
0.888552 0.000139 0.002437 0.005761 0.006878 0.019315 0.000966 0.025102 0.020763
0.008196 0.017941 0.969680 0.027921 0.505221 0.031868 0.001047 0.192285 0.034428
0.022418 0.220208 0.965236 0.015872 0.046898 0.010359 0.010780 0.179686 0.004993
0.880723 0.000270 0.002755 0.001249 0.017784 0.023671 0.001004 0.189447 0.006786
0.000077 0.982159 0.063307 0.127100 0.152832 0.102184 0.001894 0.119564 0.066202
0.353067 0.002375 0.002342 0.008405 0.944376 0.010614 0.029394 0.012635 0.007938
0.216312 0.098843 0.003363 0.105178 0.029053 0.460903 0.323875 0.030982 0.003262
0.006860 0.835297 0.005447 0.015322 0.901065 0.023249 0.156554 0.019334 0.003200
0.156597 0.001766 0.248995 0.584431 0.813184 0.032159 0.027654 0.111135 0.066975
0.106241 0.074043 0.006130 0.527694 0.002356 0.136573 0.541580 0.130138 0.005715
0.119810 0.010093 0.007300 0.004828 0.973709 0.019230 0.014266 0.011516 0.009716
0.795190 0.015289 0.012979 0.010602 0.027102 0.020957 0.001499 0.027279 0.206458
0.041475 0.260231 0.177662 0.338691 0.822549 0.018315 0.445193 0.029389 0.033765
0.341366 0.001380 0.002606 0.005855 0.892203 0.036092 0.008047 0.073479 0.011626
0.040517 0.002412 0.015217 0.026768 0.464953 0.096217 0.688099 0.093359 0.025670
0.045587 0.086426 0.023881 0.007833 0.864383 0.022436 0.076474 0.018048 0.006510
0.000926 0.979939 0.037108 0.023111 0.033708 0.083514 0.001795 0.047713 0.007308
0.047175 0.003256 0.106144 0.028193 0.959771 0.025891 0.087555 0.065583 0.016094
0.030984 0.963796 0.013546 0.039872 0.151577 0.032965 0.016107 0.094773 0.007454
0.059898 0.000462 0.006697 0.006805 0.056915 0.058512 0.001085 0.564662 0.023874
0.314379 0.000090 0.004532 0.004473 0.856823 0.036628 0.002013 0.019495 0.021342
0.011117 0.992408 0.018858 0.012637 0.176182 0.030847 0.013830 0.031401 0.002996
0.675004 0.054250 0.067934 0.017568 0.109448 0.043678 0.003376 0.049089 0.020761
0.102087 0.007177 0.059572 0.004736 0.969788 0.016654 0.015453 0.009557 0.009608
0.133481 0.003897 0.019330 0.015095 0.119912 0.060340 0.842525 0.014173 0.005663
0.001490 0.989021 0.064008 0.010928 0.007105 0.106638 0.005149 0.215546 0.007211
0.572549 0.000917 0.005880 0.006584 0.021304 0.036326 0.894194 0.023155 0.002590
0.068816 0.037471 0.652636 0.204396 0.080351 0.017864 0.710499 0.062623 0.007865
0.454453 0.009975 0.108084 0.122829 0.010621 0.059364 0.797732 0.021747 0.003199
0.002677 0.003595 0.049715 0.023662 0.139427 0.758022 0.007637 0.087169 0.082421
0.818921 0.002504 0.005345 0.003635 0.008989 0.155136 0.838046 0.013776 0.001261
0.743242 0.002296 0.005561 0.003659 0.033655 0.053286 0.001593 0.171417 0.008934
0.931534 0.000167 0.002101 0.003721 0.015364 0.026931 0.000571 0.074517 0.021221
0.338078 0.010770 0.038121 0.001513 0.943560 0.017491 0.010918 0.006443 0.004541
0.029524 0.006399 0.082126 0.021046 0.977308 0.013458 0.073445 0.019408 0.015995
0.115936 0.005968 0.941512 0.911592 0.167424 0.018190 0.004843 0.027181 0.031287
0.052440 0.953094 0.033349 0.027350 0.144791 0.037732 0.030607 0.095309 0.004688
0.000318 0.951440 0.022413 0.195636 0.037554 0.026351 0.048058 0.154654 0.005760
0.556307 0.004097 0.673073 0.001792 0.109520 0.019257 0.001279 0.012690 0.010714
0.000596 0.276496 0.008080 0.063821 0.928423 0.211017 0.181521 0.062203 0.012667
0.102943 0.011395 0.016910 0.102581 0.061168 0.103851 0.007072 0.324783 0.011693
0.152664 0.005094 0.040967 0.020865 0.666941 0.025559 0.003470 0.089821 0.401194
0.019216 0.953456 0.018868 0.037113 0.202954 0.125260 0.016157 0.070534 0.005418
0.021971 0.001803 0.011139 0.011796 0.987104 0.016164 0.037815 0.022251 0.016678
0.195177 0.016183 0.011274 0.005013 0.024476 0.052370 0.765264 0.052194 0.004910
0.015372 0.020942 0.009071 0.027411 0.015456 0.631230 0.008226 0.033965 0.025983
0.003279 0.989483 0.010152 0.098068 0.005147 0.085870 0.019963 0.345214 0.002981
0.022941 0.017270 0.004706 0.008515 0.019966 0.633788 0.050430 0.032374 0.010331
0.068780 0.973717 0.045402 0.010733 0.010015 0.073793 0.005697 0.035581 0.004574
0.105673 0.011750 0.090517 0.016014 0.978381 0.017317 0.030172 0.028332 0.012915
0.078813 0.074675 0.004576 0.016478 0.009525 0.131078 0.005404 0.419449 0.006678
0.469911 0.001293 0.002888 0.002194 0.805712 0.041798 0.002965 0.006529 0.010448
0.456707 0.011034 0.867501 0.002162 0.058218 0.017045 0.003204 0.020036 0.010653
0.618546 0.002411 0.004884 0.025703 0.706775 0.049181 0.019193 0.025710 0.026873
0.715191 0.011533 0.027148 0.952290 0.016530 0.120133 0.218112 0.021013 0.008517
0.073426 0.001013 0.003876 0.010211 0.058499 0.118654 0.000825 0.585954 0.023663
0.421286 0.024747 0.540370 0.001951 0.125364 0.028232 0.003108 0.014552 0.010585
0.703821 0.008513 0.426596 0.009447 0.629109 0.057861 0.005151 0.005395 0.011910
0.184447 0.004818 0.134572 0.085710 0.951063 0.010440 0.389243 0.040682 0.018015
0.239956 0.000128 0.020062 0.040737 0.143133 0.073874 0.001082 0.030881 0.676537
0.384064 0.021686 0.464044 0.001975 0.938040 0.013856 0.011321 0.004762 0.005500
0.166075 0.797969 0.007346 0.014781 0.426566 0.036564 0.053326 0.042015 0.002935
0.006939 0.960292 0.227112 0.059487 0.029998 0.101708 0.015097 0.078942 0.005936
0.609021 0.001629 0.002778 0.031288 0.002831 0.048879 0.930690 0.037549 0.003498
0.867937 0.022746 0.211774 0.017254 0.047454 0.037650 0.005823 0.032969 0.013082
0.051254 0.011623 0.957838 0.012168 0.079990 0.017473 0.001195 0.028094 0.021952
0.005233 0.879409 0.030497 0.060535 0.030355 0.033928 0.008172 0.230395 0.004008
0.003638 0.932813 0.023022 0.079392 0.062334 0.166525 0.077884 0.407251 0.011383
0.836927 0.003895 0.004967 0.002791 0.338169 0.096168 0.004393 0.011565 0.006756
0.347726 0.000341 0.047262 0.003726 0.220044 0.041371 0.000526 0.037255 0.047838
0.044576 0.648508 0.059727 0.357015 0.783288 0.046754 0.354964 0.037537 0.011663
0.736393 0.012795 0.003750 0.010108 0.064312 0.042790 0.004298 0.360303 0.013900
0.502489 0.001299 0.007083 0.003470 0.954770 0.010682 0.034893 0.017098 0.005381
0.000019 0.974742 0.131947 0.214681 0.039137 0.019541 0.225196 0.241623 0.015758
0.009334 0.353770 0.757327 0.085918 0.013035 0.025146 0.246521 0.165474 0.005395
0.628733 0.000279 0.004956 0.005286 0.124351 0.057436 0.000622 0.053167 0.156797
0.210338 0.004680 0.021940 0.010896 0.948121 0.010598 0.212257 0.024106 0.005822
0.036916 0.007174 0.196507 0.027486 0.974714 0.011964 0.046814 0.019871 0.019070
0.891297 0.000510 0.003233 0.009486 0.048665 0.018512 0.001144 0.062731 0.011359
0.104102 0.106647 0.134516 0.354039 0.768350 0.008913 0.506660 0.027078 0.034272
0.075117 0.000200 0.055168 0.006591 0.101685 0.054657 0.000954 0.283289 0.040696
0.671699 0.000635 0.006136 0.009412 0.007818 0.050673 0.947904 0.009989 0.003739
0.014772 0.982460 0.037376 0.014274 0.009615 0.091886 0.003009 0.029538 0.002238
0.023372 0.001238 0.003734 0.032874 0.031255 0.847934 0.021477 0.097369 0.050634
0.840441 0.000279 0.005120 0.013362 0.005924 0.052025 0.000636 0.040017 0.027522
0.964432 0.000483 0.004971 0.001772 0.006956 0.024887 0.000765 0.022722 0.006574
0.002266 0.001434 0.009142 0.277618 0.153293 0.296543 0.563701 0.047139 0.026027
0.000683 0.972458 0.010921 0.184564 0.638071 0.056102 0.070994 0.102689 0.014839
0.023586 0.026701 0.573631 0.375952 0.639811 0.001478 0.860374 0.075437 0.108021
0.133327 0.002876 0.005213 0.003141 0.805657 0.034895 0.012668 0.017574 0.006098
0.981851 0.000122 0.002424 0.001213 0.005061 0.029943 0.000788 0.063959 0.006875
0.912891 0.001235 0.001146 0.003289 0.030292 0.017875 0.018188 0.050485 0.004493
0.054857 0.926607 0.071929 0.026892 0.068135 0.092252 0.007472 0.047700 0.004833
0.002623 0.993965 0.030390 0.083197 0.013229 0.050449 0.008288 0.118381 0.004995
0.015101 0.978623 0.003263 0.017968 0.040045 0.085537 0.149690 0.071714 0.002759
0.961615 0.000927 0.002195 0.001982 0.007943 0.034197 0.001412 0.021261 0.016438
0.020926 0.682681 0.033033 0.147712 0.784965 0.004009 0.674594 0.025856 0.011567
0.019620 0.008434 0.305966 0.053343 0.125642 0.072027 0.001828 0.091001 0.023145
0.646258 0.004358 0.026640 0.006765 0.060988 0.041809 0.082731 0.032895 0.003952
0.045261 0.958651 0.010712 0.003195 0.086640 0.088297 0.008950 0.031959 0.008158
0.560372 0.002449 0.002979 0.019434 0.005502 0.081071 0.004508 0.145474 0.005767
0.121535 0.959107 0.004024 0.030020 0.007225 0.089008 0.013502 0.055959 0.003015
0.045256 0.033803 0.958126 0.061318 0.040922 0.021519 0.002710 0.047898 0.014426
0.000470 0.009429 0.711145 0.014933 0.995201 0.037581 0.001394 0.070105 0.070528
0.850423 0.000149 0.002239 0.005472 0.003239 0.035020 0.000575 0.195611 0.015334
0.006051 0.195361 0.015684 0.003807 0.074493 0.163490 0.251616 0.095532 0.004789
0.721833 0.002486 0.008432 0.001857 0.002521 0.045222 0.001533 0.237443 0.005814
0.040873 0.958041 0.022561 0.008672 0.002372 0.025837 0.564829 0.023632 0.001544
0.225670 0.001891 0.006080 0.006693 0.785195 0.047199 0.014177 0.020880 0.012068
0.164817 0.010536 0.137945 0.108933 0.676078 0.073753 0.009685 0.040371 0.160071
0.016907 0.006348 0.921480 0.011990 0.732644 0.038327 0.001126 0.020619 0.055205
0.828861 0.000625 0.004293 0.002261 0.060715 0.037848 0.000648 0.096170 0.019010
0.049091 0.972762 0.029805 0.005163 0.020764 0.115655 0.001879 0.023789 0.009576
0.653867 0.024952 0.040169 0.444547 0.003734 0.300746 0.033031 0.016496 0.005152
0.001549 0.970754 0.013725 0.034304 0.542930 0.056414 0.009389 0.042613 0.017650
0.558022 0.012898 0.794498 0.010056 0.013175 0.040822 0.001864 0.014734 0.013093
0.011064 0.012721 0.061565 0.014050 0.774557 0.235005 0.006450 0.047360 0.021060
0.002176 0.081420 0.003758 0.104398 0.016388 0.352742 0.249212 0.390889 0.004048
0.190256 0.007067 0.002195 0.036974 0.013054 0.114602 0.003136 0.315177 0.015144
0.015052 0.015084 0.006392 0.019230 0.806587 0.086678 0.010079 0.110061 0.064229
0.144708 0.017331 0.005740 0.004784 0.357415 0.610452 0.010916 0.017807 0.007473
0.080458 0.576870 0.121263 0.023122 0.201587 0.056946 0.011584 0.036483 0.018844
0.387817 0.001015 0.008618 0.006190 0.080791 0.047117 0.000601 0.049957 0.012824
0.003043 0.006854 0.010177 0.053625 0.158478 0.276723 0.001210 0.192460 0.091287
0.070428 0.002792 0.004010 0.010074 0.937011 0.019402 0.023504 0.046342 0.012778
0.828341 0.002238 0.008435 0.011965 0.058545 0.041086 0.003767 0.082452 0.009174
0.006432 0.760438 0.050745 0.150378 0.934822 0.012145 0.103774 0.016330 0.020525
0.020854 0.007098 0.012062 0.018220 0.926949 0.056827 0.018872 0.072760 0.024363
0.047216 0.004234 0.941201 0.006135 0.072982 0.034734 0.001424 0.072941 0.037265
0.207471 0.016372 0.004509 0.014350 0.483016 0.072713 0.006375 0.058281 0.031645
0.056001 0.001492 0.024147 0.008983 0.934722 0.164190 0.002379 0.025509 0.031625
0.456768 0.011148 0.817133 0.005783 0.045901 0.028913 0.003679 0.019147 0.014805
0.210132 0.041811 0.907686 0.003179 0.029301 0.018109 0.428257 0.016226 0.002532
0.170895 0.000927 0.119041 0.030356 0.007098 0.017520 0.785467 0.023549 0.006119
0.003186 0.023723 0.406632 0.021987 0.407642 0.184064 0.000736 0.118295 0.042416
0.867113 0.000289 0.005393 0.001952 0.032719 0.028090 0.001798 0.022147 0.008370
0.067908 0.008727 0.024218 0.024673 0.173201 0.123657 0.005091 0.051397 0.011337
0.894833 0.001760 0.058656 0.017530 0.104105 0.027091 0.001586 0.009062 0.021581
0.205354 0.735849 0.059780 0.090041 0.009433 0.060978 0.013605 0.046433 0.004732
0.015151 0.922988 0.038518 0.011133 0.090718 0.065320 0.004750 0.021399 0.006286
0.253330 0.003870 0.020262 0.015206 0.174593 0.107770 0.001178 0.060756 0.446194
0.914072 0.001684 0.001191 0.001622 0.047668 0.055999 0.001110 0.016679 0.012093
0.204789 0.124096 0.057865 0.019236 0.744165 0.010759 0.490939 0.033473 0.004619
0.085515 0.028987 0.208312 0.031606 0.038554 0.065598 0.001139 0.060441 0.328923
0.467123 0.000549 0.003736 0.006494 0.915362 0.018239 0.015618 0.014164 0.007563
0.457101 0.004950 0.742382 0.032575 0.317709 0.019410 0.002152 0.022174 0.019970
0.164299 0.027800 0.076852 0.028815 0.826600 0.015327 0.067576 0.025306 0.025684
0.154349 0.000048 0.027849 0.070839 0.028696 0.035048 0.000146 0.036195 0.420755
0.849273 0.005545 0.004809 0.005713 0.059524 0.173974 0.002837 0.015878 0.006642
0.894561 0.000169 0.004227 0.003216 0.007318 0.018465 0.000731 0.018126 0.016845
0.033647 0.828732 0.004841 0.032213 0.011128 0.243417 0.026925 0.169367 0.002386
0.000043 0.010661 0.213432 0.444537 0.029619 0.001502 0.997233 0.120104 0.022410
0.047607 0.000157 0.039349 0.055159 0.019232 0.040410 0.843475 0.033780 0.019095
0.226382 0.395704 0.781610 0.008196 0.058415 0.050902 0.005169 0.054148 0.004421
0.037999 0.823705 0.031868 0.005626 0.613618 0.047388 0.019133 0.010986 0.004968
0.727070 0.001038 0.789782 0.981387 0.087895 0.002562 0.038942 0.019555 0.020440
0.517957 0.000160 0.009566 0.001985 0.053748 0.035633 0.000514 0.031821 0.037240
0.974184 0.000210 0.003513 0.006517 0.005093 0.021781 0.000530 0.005408 0.042268
0.155666 0.082929 0.492330 0.028299 0.664800 0.036856 0.043090 0.029993 0.010959
0.006947 0.001325 0.014622 0.008599 0.978337 0.038889 0.004612 0.076046 0.031066
0.096494 0.001420 0.034986 0.007328 0.991231 0.034948 0.007057 0.010984 0.027259
0.062975 0.002614 0.012074 0.005971 0.979500 0.009409 0.027008 0.031628 0.010736
0.008713 0.012784 0.179652 0.058800 0.016956 0.406551 0.009278 0.048726 0.038516
0.010270 0.133182 0.060441 0.060260 0.876410 0.029695 0.440294 0.007383 0.006940
0.890905 0.000124 0.002797 0.001540 0.001399 0.017677 0.000485 0.073053 0.014367
0.505631 0.001747 0.003843 0.002466 0.014692 0.027805 0.001249 0.218914 0.009382
0.003038 0.005270 0.008426 0.571693 0.014605 0.188548 0.924335 0.238612 0.045788
0.227807 0.003010 0.008462 0.005396 0.427039 0.048202 0.001057 0.036928 0.027785
0.002701 0.559838 0.359221 0.993733 0.094882 0.022983 0.019907 0.111527 0.075264
0.182486 0.000949 0.009674 0.005409 0.945450 0.016574 0.026949 0.012706 0.005820
0.529980 0.002639 0.004822 0.004042 0.019066 0.064651 0.002688 0.151256 0.009262
0.482348 0.000766 0.005546 0.002571 0.006653 0.058002 0.000548 0.086709 0.028353
0.004868 0.035856 0.018743 0.012668 0.972679 0.052446 0.024179 0.050320 0.040820
0.256314 0.001319 0.006923 0.003631 0.041657 0.033656 0.002218 0.223706 0.010775
0.266083 0.009039 0.019272 0.010876 0.921920 0.055250 0.018445 0.028182 0.008776
0.117005 0.000101 0.009277 0.008378 0.312447 0.049884 0.000176 0.057977 0.234096
0.001713 0.006299 0.128249 0.796153 0.522571 0.099693 0.007883 0.627626 0.171295
0.014339 0.002565 0.040216 0.077518 0.980476 0.014120 0.133375 0.049048 0.035095
0.001312 0.967090 0.036377 0.057402 0.030272 0.086835 0.003890 0.247055 0.023381
0.146105 0.021097 0.025664 0.025656 0.768450 0.042880 0.018761 0.022336 0.011349
0.962761 0.000361 0.004407 0.021156 0.091042 0.026887 0.001802 0.008447 0.095925
0.000076 0.984174 0.106173 0.147691 0.102443 0.107098 0.001699 0.124274 0.107289
0.322131 0.050414 0.042568 0.002216 0.004915 0.567148 0.019817 0.015011 0.005625
0.166075 0.797969 0.007346 0.014781 0.426566 0.036564 0.053326 0.042015 0.002935
0.871721 0.000414 0.041503 0.011930 0.006414 0.019449 0.001198 0.043013 0.005230
0.292387 0.000144 0.007047 0.005330 0.025924 0.050818 0.001021 0.282459 0.048943
0.034792 0.007695 0.016996 0.022140 0.954966 0.023214 0.469907 0.015640 0.008971
0.282280 0.000361 0.022354 0.016275 0.012772 0.056173 0.000286 0.115399 0.042403
0.378008 0.005997 0.005124 0.008205 0.685727 0.022620 0.010292 0.039245 0.006605
0.700125 0.002928 0.001224 0.001286 0.032563 0.195092 0.002057 0.017903 0.009824
0.026981 0.969228 0.021059 0.013661 0.071696 0.151571 0.017410 0.060572 0.007368
0.186062 0.011051 0.555180 0.157501 0.266286 0.053877 0.005001 0.037138 0.146019
0.981055 0.000285 0.001141 0.000739 0.009307 0.021242 0.000490 0.010638 0.011005
0.336145 0.000423 0.021482 0.015063 0.003901 0.022947 0.959857 0.031507 0.007041
0.948619 0.000616 0.001860 0.002697 0.002730 0.065341 0.000825 0.066806 0.009320
0.007464 0.954424 0.011892 0.069224 0.003786 0.072231 0.021697 0.133584 0.006154
0.701547 0.003257 0.003858 0.008241 0.013754 0.101260 0.728119 0.008621 0.001891
0.230636 0.006065 0.011752 0.011811 0.036864 0.429728 0.195343 0.028292 0.003383
0.866196 0.000675 0.024151 0.002774 0.204875 0.021556 0.000668 0.007569 0.013174
0.170750 0.145449 0.224826 0.031246 0.379537 0.008780 0.087077 0.068667 0.004916
0.845265 0.002517 0.010748 0.012855 0.020859 0.112391 0.002613 0.008943 0.016437
0.003294 0.404015 0.018029 0.055853 0.406274 0.205330 0.211269 0.138159 0.011792
0.001613 0.019891 0.958739 0.008242 0.042276 0.085109 0.000636 0.095711 0.052154
0.005843 0.000620 0.009653 0.217858 0.029321 0.284970 0.820303 0.214466 0.024422
0.310059 0.000956 0.080392 0.010198 0.044331 0.031830 0.000406 0.023936 0.064253
0.009512 0.002383 0.146104 0.110694 0.159888 0.061226 0.019524 0.371077 0.055605
0.879978 0.000460 0.003306 0.005738 0.002122 0.018682 0.986486 0.024555 0.000800
0.006151 0.004134 0.020536 0.164702 0.159661 0.107807 0.624226 0.079836 0.082609
0.268045 0.004772 0.924144 0.034055 0.115166 0.013746 0.001524 0.007156 0.037716
0.062458 0.014025 0.188316 0.039088 0.052851 0.403222 0.061314 0.013983 0.012138
0.021526 0.975747 0.022019 0.156254 0.005484 0.027874 0.031647 0.140036 0.005002
0.023522 0.500916 0.068009 0.094207 0.319228 0.046115 0.127084 0.133100 0.015290
0.001594 0.974429 0.033994 0.122385 0.367166 0.078363 0.038108 0.117715 0.010321
0.013962 0.001695 0.008838 0.009348 0.981251 0.011271 0.013474 0.016945 0.018769
0.298577 0.000325 0.011988 0.003477 0.097022 0.039986 0.000734 0.121069 0.038484
0.009413 0.557151 0.051439 0.595230 0.066357 0.036697 0.509547 0.235692 0.017181
0.001701 0.980029 0.022847 0.171721 0.080193 0.064414 0.012500 0.213711 0.008696
0.042103 0.814711 0.032079 0.755967 0.158452 0.005429 0.051308 0.017562 0.006808
0.637656 0.000631 0.008056 0.005656 0.008480 0.036341 0.000362 0.028067 0.051914
0.009839 0.000621 0.017720 0.030941 0.068226 0.095013 0.905326 0.068011 0.031365
0.345420 0.002059 0.007245 0.002979 0.940638 0.022482 0.041014 0.014065 0.004422
0.645783 0.009821 0.009673 0.004838 0.071856 0.173651 0.004449 0.017180 0.011654
0.046057 0.529325 0.088790 0.099130 0.693615 0.017829 0.751590 0.090794 0.007655
0.805119 0.001327 0.003794 0.004079 0.008019 0.029582 0.001038 0.033760 0.012144
0.431304 0.016753 0.094103 0.033316 0.207897 0.029595 0.003488 0.142629 0.005914
0.024987 0.823106 0.014773 0.019393 0.023278 0.054368 0.005010 0.134280 0.013448
0.042026 0.189728 0.058215 0.139556 0.908744 0.020073 0.083543 0.027407 0.070994
0.944137 0.000226 0.013720 0.002599 0.003155 0.015607 0.001212 0.051359 0.006104
0.453722 0.001669 0.002572 0.001760 0.011728 0.060363 0.028546 0.197380 0.023624
0.064619 0.000088 0.015193 0.009124 0.010080 0.101704 0.000694 0.193845 0.112450
0.495071 0.028161 0.731183 0.004208 0.301425 0.033134 0.005080 0.034488 0.004686
0.571591 0.000625 0.004767 0.002228 0.100978 0.016307 0.000745 0.051699 0.023432
0.021125 0.186289 0.006442 0.009831 0.925942 0.018458 0.033720 0.034954 0.019091
0.028753 0.887807 0.015020 0.021234 0.808147 0.008001 0.107485 0.007387 0.004791
0.778968 0.001627 0.003528 0.005772 0.266641 0.061392 0.001668 0.009361 0.031971
0.000167 0.000038 0.799429 0.000262 0.000055 0.000000 1.000000 0.000297 0.003337
0.073475 0.001967 0.001892 0.006715 0.742418 0.069918 0.002517 0.046780 0.031364
0.123958 0.013586 0.004184 0.003137 0.934540 0.045922 0.042384 0.010859 0.006692
0.080069 0.023300 0.058258 0.008904 0.036612 0.092555 0.116007 0.042725 0.006055
0.507491 0.013787 0.072634 0.009720 0.876774 0.021377 0.021926 0.009737 0.006819
0.697996 0.003733 0.001089 0.005355 0.277679 0.049335 0.002601 0.025208 0.011054
0.000172 0.935077 0.127317 0.369798 0.055003 0.012454 0.360875 0.135624 0.016388
0.204036 0.000282 0.004886 0.006834 0.012789 0.055662 0.913863 0.020087 0.010874
0.007844 0.000458 0.020076 0.007817 0.046392 0.053906 0.006096 0.638500 0.036394
0.844905 0.009087 0.006607 0.003346 0.003438 0.037134 0.001270 0.106949 0.006531
0.051809 0.000457 0.016805 0.005085 0.887484 0.026543 0.000808 0.037152 0.090642
0.981780 0.000177 0.003227 0.001910 0.007022 0.017860 0.000598 0.005491 0.045122
0.971041 0.000728 0.007143 0.004735 0.005379 0.017275 0.000685 0.021655 0.007071
0.737012 0.003521 0.277364 0.002974 0.098506 0.027627 0.001023 0.020295 0.011439
0.191887 0.013422 0.958425 0.004489 0.068747 0.016531 0.000628 0.031230 0.011314
0.864426 0.001288 0.008544 0.002873 0.175531 0.023526 0.001026 0.035373 0.006250
0.405376 0.005881 0.735508 0.011576 0.314958 0.053617 0.008274 0.027523 0.010787
0.020654 0.991026 0.020727 0.074284 0.036697 0.114962 0.006098 0.045231 0.006261
0.322695 0.004463 0.001703 0.006078 0.885757 0.046005 0.062061 0.061481 0.005402
0.006461 0.666997 0.296590 0.118946 0.488988 0.081776 0.017370 0.138534 0.057085
0.266627 0.052920 0.786289 0.003361 0.117958 0.025458 0.002009 0.017408 0.009795
0.007416 0.436809 0.039535 0.153721 0.934596 0.009425 0.286882 0.017177 0.017033
0.812023 0.002606 0.002429 0.001337 0.022269 0.040344 0.002211 0.037365 0.010424
0.558664 0.004593 0.076252 0.696394 0.027662 0.024029 0.036312 0.125084 0.020982
0.042062 0.937958 0.055882 0.018965 0.045568 0.050517 0.009918 0.021261 0.006657
0.038256 0.311655 0.005150 0.002797 0.281086 0.568483 0.049429 0.042727 0.005315
0.000612 0.005985 0.066466 0.055722 0.978674 0.020601 0.003090 0.054380 0.047083
0.149475 0.569829 0.086458 0.003509 0.073223 0.044732 0.003630 0.022021 0.013734
0.000150 0.991131 0.084776 0.084160 0.007415 0.013461 0.144713 0.131665 0.002518
0.224289 0.076651 0.501669 0.077433 0.095136 0.060548 0.034324 0.270480 0.014783
0.841168 0.001734 0.008576 0.012304 0.000604 0.114976 0.005806 0.061413 0.002897
0.079563 0.958536 0.122322 0.017839 0.003707 0.111990 0.026033 0.197551 0.000855
0.908920 0.012792 0.016896 0.010301 0.004279 0.037174 0.091102 0.019219 0.011884
0.750831 0.008757 0.929613 0.010916 0.023523 0.010452 0.020008 0.009553 0.004483
0.260726 0.007464 0.004507 0.016845 0.893884 0.052208 0.077651 0.047819 0.007874
0.260447 0.003057 0.011696 0.022004 0.973951 0.027916 0.037013 0.018040 0.024997
0.412864 0.006094 0.178647 0.001564 0.823998 0.029068 0.002562 0.005964 0.006539
0.027988 0.001701 0.036340 0.011550 0.344079 0.067598 0.000177 0.134743 0.211227
0.689119 0.009478 0.865271 0.004376 0.136250 0.022872 0.002059 0.008730 0.008045
0.000316 0.001138 0.012142 0.016745 0.988962 0.044186 0.003502 0.044739 0.068133
0.083391 0.012777 0.007940 0.009232 0.926126 0.024577 0.026223 0.018862 0.009260
0.003424 0.001797 0.039805 0.067026 0.995622 0.041870 0.045524 0.074865 0.302599
0.000468 0.948294 0.116775 0.075667 0.210616 0.002698 0.627914 0.170723 0.009261
0.067382 0.008593 0.781740 0.030148 0.295255 0.062634 0.010967 0.027982 0.066040
0.005608 0.017344 0.979003 0.033352 0.086156 0.043871 0.001730 0.060379 0.045366
0.096875 0.004559 0.089947 0.866161 0.037252 0.042093 0.547008 0.060925 0.019534
0.125546 0.001349 0.008473 0.007296 0.970492 0.011225 0.029608 0.017499 0.011019
0.041812 0.015316 0.123144 0.045454 0.972256 0.046161 0.133531 0.067959 0.023550
0.000071 0.981140 0.070835 0.972211 0.119853 0.008929 0.347369 0.185062 0.049025
0.457542 0.018624 0.021925 0.025032 0.822911 0.022280 0.013125 0.045768 0.007636
0.412971 0.001063 0.007686 0.004247 0.964125 0.014550 0.014767 0.004903 0.007439
0.014846 0.953180 0.026330 0.044263 0.027372 0.156268 0.005381 0.090122 0.004586
0.923580 0.005652 0.017050 0.007571 0.007634 0.460890 0.010515 0.020075 0.004903
0.019863 0.996978 0.002309 0.015013 0.004283 0.063767 0.008723 0.198263 0.001566
0.930809 0.001742 0.002663 0.002425 0.005188 0.032343 0.002311 0.063476 0.005666
0.361300 0.000516 0.001629 0.001992 0.915325 0.018156 0.022724 0.016829 0.006223
0.004694 0.010420 0.436782 0.052262 0.096886 0.099886 0.000574 0.092240 0.630095
0.437373 0.000737 0.006009 0.009101 0.914740 0.056768 0.010185 0.015557 0.096606
0.894539 0.000790 0.004220 0.013923 0.110577 0.040702 0.000514 0.005356 0.018747
0.090800 0.004458 0.030576 0.004873 0.974901 0.016978 0.025545 0.014222 0.020125
0.963172 0.000149 0.011714 0.011454 0.027108 0.040591 0.001292 0.009816 0.030247
0.299255 0.002457 0.141528 0.012685 0.967821 0.023581 0.014058 0.013644 0.010559
0.533737 0.001206 0.004066 0.005747 0.034678 0.030791 0.001784 0.018403 0.018897
0.956178 0.001567 0.042968 0.005166 0.013873 0.019222 0.007338 0.032257 0.006276
0.000621 0.003790 0.080119 0.108875 0.139941 0.039327 0.898078 0.034504 0.033221
0.548297 0.007205 0.458249 0.009340 0.389489 0.024750 0.003525 0.018499 0.016263
0.054072 0.015589 0.014685 0.057984 0.370334 0.032995 0.991556 0.019839 0.004093
0.293734 0.001388 0.021877 0.013959 0.527371 0.085013 0.001369 0.031153 0.096660
0.236618 0.002091 0.001573 0.002608 0.913588 0.010748 0.023458 0.010104 0.004632
0.003855 0.991060 0.013938 0.027029 0.053922 0.137107 0.011094 0.145859 0.005217
0.972766 0.000239 0.003293 0.000645 0.018952 0.026032 0.001619 0.019948 0.014210
0.004454 0.010676 0.962409 0.018402 0.120001 0.019181 0.000183 0.076025 0.086102
0.004929 0.011039 0.002812 0.027589 0.695746 0.066897 0.337613 0.092833 0.013277
0.001412 0.002804 0.870779 0.273863 0.013982 0.009206 0.861825 0.192621 0.018629
0.377950 0.019867 0.777067 0.002208 0.076321 0.012371 0.002175 0.050113 0.004729
0.653585 0.019452 0.108494 0.835274 0.020197 0.015219 0.163133 0.030172 0.005212
0.075292 0.000384 0.057444 0.130743 0.036011 0.047379 0.000322 0.045104 0.173842
0.840640 0.000146 0.004020 0.001589 0.010454 0.024547 0.000988 0.036088 0.012747
0.010164 0.003316 0.012524 0.234542 0.040224 0.177695 0.034823 0.085653 0.183246
0.714631 0.002503 0.005455 0.003203 0.033360 0.095524 0.042868 0.004320 0.008868
0.411001 0.004574 0.003553 0.002236 0.011872 0.033325 0.001930 0.179062 0.065509
0.000253 0.981498 0.125783 0.088193 0.026960 0.074186 0.000770 0.108821 0.049507
0.094379 0.000381 0.018867 0.034412 0.047369 0.026534 0.022832 0.084619 0.263139
0.455794 0.015194 0.010812 0.007703 0.015137 0.477536 0.008540 0.041941 0.004596
0.840217 0.000304 0.072161 0.422134 0.129562 0.026219 0.027261 0.010903 0.143467
0.009159 0.888787 0.020475 0.029406 0.717982 0.046073 0.072814 0.035714 0.018315
0.165844 0.022759 0.014575 0.024792 0.354291 0.053281 0.002680 0.039501 0.057432
0.041788 0.002606 0.022375 0.252222 0.008157 0.064607 0.097509 0.232697 0.017465
0.928471 0.000541 0.001623 0.001698 0.006984 0.016520 0.000616 0.033223 0.021625
0.295605 0.103122 0.950990 0.004428 0.044457 0.019602 0.003428 0.013373 0.003127
0.861470 0.001910 0.003131 0.044718 0.006551 0.089860 0.003287 0.221406 0.006085
0.062821 0.949623 0.008513 0.013366 0.258211 0.060790 0.006687 0.028811 0.005173
0.211252 0.002925 0.005993 0.016997 0.028482 0.116379 0.003218 0.275086 0.013020
0.000034 0.850672 0.119773 0.236957 0.756901 0.002067 0.510801 0.060913 0.045207
0.072692 0.930576 0.041463 0.021886 0.074195 0.121875 0.023163 0.023414 0.002519
0.397307 0.028750 0.616451 0.017916 0.787133 0.007554 0.038370 0.025813 0.009136
0.876635 0.000135 0.004217 0.020791 0.024918 0.028319 0.000869 0.077090 0.015644
0.321851 0.008095 0.308162 0.008926 0.417674 0.048138 0.001080 0.044714 0.012650
0.842727 0.002641 0.008886 0.011551 0.037055 0.089387 0.011031 0.053012 0.004755
0.007991 0.076023 0.022064 0.037070 0.541128 0.079139 0.009191 0.136562 0.224045
0.001798 0.989700 0.017231 0.038056 0.169234 0.045592 0.018602 0.085470 0.003758
0.881616 0.001808 0.176259 0.014764 0.196823 0.021421 0.003174 0.005665 0.025773
0.043498 0.932344 0.009463 0.031313 0.415226 0.042606 0.063917 0.052981 0.006294
0.027986 0.000403 0.029171 0.011058 0.017687 0.038610 0.719204 0.032007 0.026156
0.027173 0.000920 0.010881 0.064100 0.016288 0.089843 0.000644 0.393037 0.037797
0.377002 0.001845 0.003510 0.004915 0.109079 0.042223 0.001063 0.215678 0.016620
0.010228 0.003299 0.012477 0.103480 0.190674 0.092747 0.681873 0.124884 0.036525
0.007098 0.003734 0.254555 0.995984 0.102031 0.028040 0.003410 0.356811 0.313273
0.894063 0.001109 0.001424 0.003593 0.006642 0.141110 0.002764 0.035039 0.029573
0.785275 0.003476 0.007510 0.001264 0.004277 0.032792 0.002826 0.062807 0.004190
0.079070 0.989647 0.010000 0.006574 0.018570 0.126130 0.006077 0.032283 0.003794
0.840920 0.000631 0.007313 0.006329 0.040941 0.114401 0.001354 0.064712 0.013262
0.648576 0.000437 0.003393 0.000986 0.007826 0.061119 0.000570 0.106227 0.028021
0.142403 0.004659 0.039770 0.003130 0.966310 0.020856 0.013278 0.012653 0.005868
0.634707 0.000445 0.004810 0.002146 0.336564 0.048501 0.001337 0.058126 0.021291
0.895165 0.002062 0.008527 0.003680 0.118469 0.029945 0.001540 0.021715 0.151652
0.205299 0.000501 0.005643 0.001706 0.974137 0.012709 0.046798 0.010242 0.007019
0.094856 0.864973 0.052894 0.083534 0.010027 0.045821 0.209953 0.094685 0.003378
0.072710 0.004332 0.007354 0.082539 0.273860 0.092015 0.916671 0.032891 0.006763
0.439385 0.001774 0.015659 0.010051 0.094811 0.036349 0.001453 0.312693 0.007784
0.012160 0.000735 0.163800 0.011014 0.040727 0.000777 0.993682 0.029986 0.011934
0.689830 0.003634 0.003277 0.004759 0.154442 0.095553 0.002798 0.172213 0.008051
0.779451 0.001009 0.003240 0.001246 0.011533 0.019015 0.001204 0.049114 0.008810
0.833808 0.002197 0.002023 0.002125 0.005195 0.033198 0.001107 0.350578 0.006212
0.003827 0.012105 0.013509 0.033874 0.072820 0.255352 0.001032 0.178534 0.152514
0.134303 0.000727 0.003204 0.002207 0.929612 0.027896 0.005908 0.021748 0.005889
0.154601 0.007053 0.004489 0.007614 0.038475 0.430445 0.025106 0.116585 0.021021
0.002465 0.008669 0.705014 0.348256 0.853103 0.000104 0.946211 0.025880 0.273890
0.407156 0.006568 0.093556 0.246323 0.028919 0.036133 0.506883 0.151287 0.005347
0.042839 0.000121 0.012854 0.016827 0.114385 0.034316 0.000153 0.090893 0.312885
0.059372 0.003042 0.003746 0.005591 0.706196 0.381830 0.005563 0.072228 0.020478
0.137186 0.338244 0.001171 0.006375 0.001301 0.368837 0.018640 0.116452 0.001634
0.007090 0.022544 0.067878 0.271696 0.039086 0.214227 0.335125 0.017278 0.017664
0.033218 0.926138 0.031184 0.024347 0.206541 0.041650 0.111715 0.050368 0.004046
0.016454 0.000599 0.060494 0.024867 0.897427 0.039097 0.001173 0.021218 0.056849
0.026622 0.959671 0.003368 0.020853 0.660831 0.008275 0.159268 0.031184 0.002169
0.034916 0.065323 0.001626 0.002383 0.050098 0.608423 0.008999 0.063479 0.021011
0.493380 0.005697 0.002443 0.008470 0.021985 0.832353 0.036137 0.029356 0.018611
0.063258 0.000519 0.019130 0.050665 0.018330 0.043913 0.000308 0.145836 0.534560
0.102226 0.002721 0.005996 0.004319 0.848963 0.014353 0.042109 0.040746 0.005535
0.593674 0.004413 0.168613 0.065688 0.029897 0.025631 0.001316 0.026448 0.115184
0.280563 0.000158 0.006448 0.010279 0.036482 0.102090 0.000536 0.044809 0.103281
0.618680 0.199740 0.067654 0.048095 0.047540 0.086706 0.006651 0.073671 0.107593
0.018692 0.000299 0.016594 0.136535 0.010993 0.036553 0.712325 0.022958 0.114589
0.315573 0.002765 0.006777 0.103309 0.044375 0.058526 0.002577 0.094992 0.068408
0.205392 0.006930 0.004372 0.005611 0.020789 0.320064 0.002188 0.026558 0.019319
0.460985 0.002861 0.096775 0.071200 0.909502 0.017509 0.100050 0.043676 0.019884
0.208419 0.001943 0.013271 0.008237 0.934502 0.027147 0.078118 0.018274 0.006377
0.015982 0.398863 0.004061 0.065517 0.291417 0.175937 0.005727 0.097963 0.039282
0.809796 0.000599 0.001868 0.003012 0.020142 0.034078 0.000718 0.020460 0.019157
0.125609 0.006528 0.001222 0.003831 0.210605 0.471797 0.014093 0.032437 0.008323
0.054169 0.000224 0.030065 0.100020 0.208895 0.059465 0.001412 0.081973 0.855399
0.062857 0.005340 0.022668 0.018558 0.929592 0.006092 0.124267 0.023210 0.009358
0.080280 0.052636 0.966795 0.014255 0.015854 0.025665 0.002427 0.078128 0.005142
0.145149 0.000750 0.005717 0.002158 0.951562 0.030079 0.005125 0.009278 0.013000
0.000023 0.971401 0.275064 0.549775 0.137722 0.013385 0.070668 0.316687 0.072844
0.104781 0.001236 0.005372 0.013491 0.743573 0.043933 0.001482 0.066885 0.016987
0.275302 0.001560 0.005585 0.024359 0.000928 0.028620 0.751245 0.112829 0.003798
0.141614 0.724599 0.011257 0.023087 0.196996 0.146086 0.055419 0.090617 0.006659
0.827184 0.001177 0.043626 0.002582 0.122882 0.021948 0.001043 0.010252 0.027537
0.004624 0.000172 0.017054 0.016942 0.038155 0.024095 0.000195 0.216896 0.412276
0.864990 0.003149 0.004933 0.002906 0.004231 0.049143 0.001367 0.087376 0.013235
0.605855 0.016283 0.722530 0.005733 0.103368 0.029610 0.003172 0.029085 0.007319
0.662913 0.001121 0.001923 0.002056 0.500965 0.039333 0.002009 0.014243 0.008085
0.142242 0.003527 0.013474 0.034301 0.002627 0.074202 0.894178 0.010690 0.005344
0.575242 0.003425 0.013945 0.006703 0.091918 0.020569 0.220119 0.058071 0.009144
0.004511 0.985243 0.022504 0.113911 0.057441 0.054302 0.035816 0.329480 0.008460
0.347803 0.043120 0.880285 0.002742 0.055920 0.019527 0.002793 0.019174 0.004294
0.104102 0.106647 0.134516 0.354039 0.768350 0.008913 0.506660 0.027078 0.034272
0.002439 0.004664 0.018411 0.162159 0.857710 0.236872 0.136171 0.039901 0.023842
0.321705 0.003098 0.024790 0.008011 0.975242 0.035639 0.019711 0.010121 0.011602
0.257832 0.089186 0.822834 0.004774 0.011430 0.078310 0.010283 0.034239 0.002343
0.028472 0.003273 0.005860 0.012566 0.047059 0.771282 0.032024 0.018148 0.134526
0.160286 0.149325 0.005897 0.029301 0.020869 0.077546 0.004664 0.231067 0.005996
0.003008 0.969974 0.010271 0.032846 0.465388 0.011360 0.523378 0.025083 0.002996
0.015114 0.914964 0.014041 0.011813 0.018543 0.156759 0.006417 0.060666 0.002210
0.070915 0.038314 0.055809 0.161791 0.028192 0.213280 0.003408 0.216452 0.028161
0.110006 0.003378 0.006943 0.005530 0.950173 0.017491 0.038372 0.025472 0.007538
0.055850 0.128333 0.000436 0.004375 0.883408 0.142829 0.160800 0.007708 0.001923
0.004464 0.935494 0.006864 0.089803 0.710493 0.059461 0.057459 0.110915 0.007775
0.040730 0.976785 0.008656 0.021192 0.005585 0.057428 0.014885 0.091594 0.002031
0.970404 0.000686 0.003245 0.002956 0.034540 0.021206 0.000722 0.010523 0.023081
0.017400 0.002379 0.008777 0.012557 0.975766 0.034604 0.048364 0.091283 0.038524
0.274343 0.000037 0.006651 0.023375 0.004731 0.028661 0.003472 0.294419 0.073411
0.832431 0.000901 0.004357 0.000701 0.034525 0.031660 0.001143 0.034517 0.011509
0.923177 0.000989 0.003267 0.039991 0.006004 0.151125 0.375087 0.015055 0.003130
0.246595 0.003819 0.007899 0.005814 0.956899 0.016683 0.029263 0.013565 0.007137
0.001991 0.000304 0.126166 0.066837 0.656845 0.000233 0.983898 0.023809 0.104889
0.596123 0.005902 0.906488 0.012979 0.040515 0.007872 0.003645 0.058812 0.005683
0.539218 0.002571 0.008639 0.008966 0.066654 0.021390 0.001856 0.050539 0.020835
0.397135 0.000471 0.010790 0.013841 0.023598 0.020633 0.209560 0.015404 0.032888
0.927100 0.000391 0.004535 0.007588 0.167734 0.025200 0.004399 0.014466 0.038939
0.948664 0.001013 0.130687 0.009931 0.008438 0.019325 0.001084 0.027333 0.008544
0.230237 0.015637 0.889566 0.012861 0.138237 0.010402 0.007268 0.205648 0.008107
0.794834 0.000250 0.012437 0.000871 0.020142 0.015377 0.000601 0.032606 0.021173
0.000319 0.975257 0.053016 0.069972 0.189404 0.181968 0.010611 0.330300 0.020583
0.006042 0.202903 0.717346 0.207180 0.923261 0.008994 0.011023 0.127047 0.041965
0.017944 0.973519 0.006243 0.006954 0.830067 0.026084 0.053786 0.012489 0.002201
0.271277 0.010027 0.004900 0.123808 0.026590 0.122002 0.005820 0.201076 0.015297
0.171085 0.017713 0.003659 0.008430 0.065821 0.311877 0.409193 0.017538 0.002807
0.317028 0.013015 0.025291 0.101173 0.508142 0.087623 0.059340 0.265836 0.021869
0.000094 0.015956 0.022651 0.092605 0.996809 0.088702 0.552975 0.021083 0.080410
0.658572 0.023879 0.034705 0.025526 0.125741 0.071763 0.002172 0.015927 0.060957
0.009679 0.920285 0.065585 0.011001 0.275701 0.084159 0.005760 0.031926 0.027193
0.058959 0.786167 0.006358 0.013129 0.601289 0.052176 0.040583 0.018123 0.005466
0.934679 0.002870 0.003306 0.007724 0.003352 0.044596 0.014090 0.162234 0.007544
0.001365 0.000860 0.025180 0.051009 0.155339 0.166857 0.617249 0.164446 0.029486
0.175599 0.000847 0.007697 0.006268 0.969017 0.011874 0.077367 0.019990 0.008910
0.007457 0.773284 0.063341 0.066282 0.609776 0.069535 0.417499 0.106975 0.008949
0.080840 0.112289 0.001348 0.003863 0.853614 0.013025 0.133926 0.018780 0.004304
0.032552 0.602917 0.004727 0.042308 0.752205 0.040253 0.075645 0.053701 0.007130
0.008465 0.793558 0.342728 0.116396 0.050871 0.038873 0.002553 0.170729 0.016226
0.042299 0.004373 0.034867 0.011290 0.962280 0.017117 0.080844 0.016994 0.012298
0.058034 0.014666 0.012943 0.007954 0.897041 0.017136 0.063836 0.024125 0.008351
0.977817 0.000496 0.001734 0.001742 0.006698 0.026213 0.000620 0.021639 0.005978
0.070546 0.690605 0.024466 0.028826 0.826426 0.021981 0.110928 0.015471 0.006609
0.002285 0.379025 0.463883 0.976329 0.174814 0.028454 0.082386 0.165888 0.086593
0.004464 0.935494 0.006864 0.089803 0.710493 0.059461 0.057459 0.110915 0.007775
0.025437 0.042950 0.023253 0.047389 0.145501 0.138087 0.141482 0.114153 0.011521
0.015348 0.003510 0.971617 0.013954 0.339046 0.014583 0.000243 0.021831 0.029765
0.585202 0.007619 0.798455 0.002539 0.283368 0.017552 0.003144 0.012564 0.007327
0.366897 0.002348 0.012878 0.005060 0.969003 0.007184 0.048116 0.008641 0.004658
0.130800 0.005366 0.735636 0.021434 0.467876 0.029248 0.004173 0.075050 0.032774
0.004234 0.003722 0.514255 0.574020 0.460508 0.000625 0.978291 0.046718 0.122032
0.114924 0.107386 0.003820 0.020985 0.340467 0.158639 0.789093 0.036033 0.002225
0.017317 0.120168 0.010560 0.014467 0.024174 0.236107 0.697699 0.027105 0.003309
0.119271 0.010560 0.149647 0.119825 0.029169 0.640652 0.012768 0.018051 0.016794
0.662820 0.010983 0.001637 0.003072 0.010546 0.286118 0.003972 0.082642 0.012777
0.138985 0.000426 0.010540 0.021974 0.041526 0.081583 0.947892 0.015315 0.003869
0.278987 0.003580 0.693905 0.027270 0.072542 0.017151 0.030770 0.026085 0.017459
0.004465 0.804769 0.078376 0.080120 0.372860 0.036537 0.252060 0.211643 0.014382
0.005418 0.050539 0.008221 0.060542 0.014429 0.153202 0.461661 0.365396 0.010845
0.483131 0.163585 0.750215 0.006202 0.207254 0.033022 0.004071 0.015107 0.004680
0.487035 0.001220 0.007280 0.002597 0.953077 0.019565 0.012370 0.007190 0.008442
0.048482 0.008317 0.006457 0.021165 0.045126 0.064472 0.005232 0.577717 0.020932
0.050268 0.025233 0.948723 0.018027 0.126460 0.010898 0.002143 0.146586 0.011398
0.026931 0.015595 0.627281 0.056529 0.023373 0.214876 0.002081 0.046563 0.067623
0.014410 0.002657 0.181555 0.121055 0.983709 0.014402 0.407395 0.092238 0.084579
0.186299 0.003954 0.020886 0.017215 0.071037 0.100742 0.000585 0.026399 0.071165
0.502299 0.249606 0.125803 0.063076 0.062211 0.044097 0.039260 0.330129 0.031636
0.048478 0.004423 0.039402 0.023820 0.956087 0.009960 0.110428 0.051528 0.015079
0.023375 0.004909 0.022051 0.006500 0.964981 0.057996 0.019334 0.081782 0.023748
0.314472 0.000210 0.004566 0.003921 0.324720 0.045950 0.000335 0.024669 0.057534
0.470753 0.000792 0.007996 0.001492 0.931750 0.016045 0.026927 0.017347 0.004699
0.011480 0.006327 0.020311 0.022148 0.519083 0.185998 0.019217 0.047456 0.080472
0.163358 0.004623 0.018774 0.006177 0.916703 0.024826 0.013036 0.013610 0.011286
0.028700 0.380567 0.062565 0.045994 0.303373 0.029319 0.007452 0.140099 0.159108
0.717471 0.001187 0.004896 0.007227 0.007966 0.038873 0.001050 0.123264 0.006170
0.000177 0.707489 0.073943 0.184239 0.547115 0.167226 0.009095 0.372042 0.046401
0.029775 0.003754 0.021345 0.013947 0.987638 0.042942 0.024691 0.055199 0.024172
0.037927 0.005819 0.005453 0.004114 0.964191 0.033233 0.039880 0.013943 0.016659
0.033859 0.000403 0.008189 0.023302 0.032371 0.436778 0.244276 0.037135 0.114148
0.654976 0.001239 0.002840 0.009648 0.031674 0.044802 0.003057 0.285902 0.010485
0.013057 0.949404 0.019614 0.053633 0.039157 0.036311 0.002826 0.031372 0.015783
0.630962 0.000204 0.018757 0.028355 0.177761 0.027602 0.000473 0.010159 0.137562
0.286856 0.001232 0.003995 0.002597 0.928479 0.011965 0.031383 0.006399 0.010813
0.019894 0.963438 0.015739 0.003996 0.010191 0.094460 0.005936 0.028184 0.002391
0.009053 0.935946 0.020581 0.055381 0.012230 0.039130 0.011651 0.098070 0.010030
0.917282 0.002030 0.003412 0.002732 0.064612 0.051721 0.001709 0.096276 0.006626
0.060082 0.956689 0.018377 0.006712 0.004378 0.182376 0.007683 0.021468 0.001691
0.202975 0.176097 0.292257 0.043957 0.099738 0.101184 0.006039 0.042423 0.007935
0.005789 0.960859 0.075647 0.026999 0.014710 0.037310 0.000477 0.037718 0.010500
0.078575 0.002894 0.006262 0.000887 0.942885 0.060818 0.011494 0.013822 0.007483
0.043590 0.000263 0.012234 0.007945 0.022286 0.061050 0.002040 0.243658 0.097839
0.861945 0.000454 0.002659 0.002308 0.002122 0.032501 0.000658 0.061657 0.007643
0.785144 0.002338 0.360577 0.045833 0.337958 0.019235 0.003537 0.017839 0.038109
0.003865 0.940511 0.087173 0.010434 0.098583 0.052461 0.088922 0.028294 0.008038
0.101138 0.006880 0.002882 0.010328 0.030371 0.106239 0.014814 0.334800 0.008896
0.103553 0.000188 0.036023 0.094033 0.239670 0.068131 0.000968 0.057759 0.748388
0.841102 0.000870 0.002660 0.004945 0.010243 0.029891 0.001223 0.158629 0.015876
0.139231 0.036716 0.355820 0.993596 0.060399 0.007739 0.365930 0.029921 0.035570
0.006386 0.844156 0.013031 0.036446 0.023997 0.075776 0.082281 0.040191 0.009370
0.069690 0.073341 0.051423 0.996768 0.056641 0.011691 0.102112 0.021632 0.028892
0.099609 0.827672 0.096545 0.029174 0.026885 0.052480 0.008708 0.073911 0.005499
0.243356 0.097707 0.235234 0.052301 0.794276 0.021701 0.149724 0.060681 0.010926
0.348673 0.044527 0.798716 0.002261 0.062884 0.051967 0.003414 0.051404 0.004288
0.568981 0.000737 0.592785 0.974627 0.204754 0.002194 0.113261 0.014184 0.014631
0.946701 0.002033 0.459512 0.003489 0.028881 0.012339 0.000714 0.006652 0.007397
0.971356 0.000256 0.001291 0.001481 0.012707 0.024437 0.001217 0.034101 0.028654
0.003087 0.015050 0.274957 0.124396 0.867822 0.061926 0.005993 0.160542 0.890630
0.055881 0.043124 0.002318 0.005841 0.596346 0.049667 0.007541 0.098521 0.011721
0.049579 0.901113 0.086091 0.015130 0.092833 0.025640 0.004865 0.034606 0.004551
0.055569 0.012974 0.003182 0.027149 0.058526 0.112138 0.120167 0.117792 0.014725
0.076157 0.038661 0.716232 0.013485 0.238084 0.069648 0.009004 0.049638 0.016025
0.796771 0.000795 0.017388 0.002365 0.057961 0.036236 0.001209 0.040692 0.019263
0.690970 0.028766 0.868449 0.002233 0.006687 0.013696 0.014411 0.067555 0.003435
0.357195 0.003694 0.008167 0.012362 0.950860 0.022815 0.025595 0.011445 0.009746
0.351500 0.012188 0.013544 0.017779 0.774285 0.036421 0.084260 0.051198 0.006055
0.000089 0.995965 0.023159 0.526663 0.167848 0.025515 0.010076 0.289613 0.025489
0.287976 0.001249 0.002804 0.002629 0.864228 0.032629 0.006608 0.018523 0.008450
0.620165 0.000925 0.009719 0.016696 0.171490 0.054815 0.933428 0.006076 0.013895
0.731160 0.017958 0.172663 0.034769 0.132324 0.018447 0.153963 0.078507 0.004761
0.695234 0.001304 0.003511 0.002499 0.022089 0.036719 0.000749 0.300935 0.007787
0.002291 0.003249 0.056940 0.137270 0.033408 0.189876 0.893388 0.074303 0.020829
0.003282 0.002089 0.013948 0.043292 0.971983 0.095638 0.012840 0.115108 0.083528
0.822597 0.000553 0.000672 0.002869 0.503636 0.046673 0.004002 0.017343 0.017591
0.024073 0.991727 0.020315 0.069320 0.027332 0.080403 0.013963 0.181232 0.005374
0.213687 0.303087 0.025069 0.003971 0.013596 0.310199 0.007376 0.042989 0.010423
0.042666 0.615175 0.016956 0.073255 0.914331 0.024019 0.126198 0.016557 0.008652
0.927026 0.001176 0.001320 0.001292 0.023887 0.030216 0.001363 0.022231 0.004292
0.034175 0.599957 0.106372 0.060659 0.052154 0.024978 0.788345 0.091067 0.002439
0.001245 0.018370 0.799610 0.128285 0.717352 0.039943 0.380533 0.076478 0.064981
0.676454 0.002293 0.002649 0.007140 0.078873 0.011215 0.025724 0.143381 0.006438
0.048506 0.039232 0.004181 0.030545 0.015897 0.733905 0.215034 0.065793 0.009715
0.288443 0.002239 0.012085 0.006872 0.962836 0.010716 0.038997 0.010569 0.007983
0.431166 0.093863 0.398325 0.005576 0.603176 0.018753 0.002797 0.025844 0.004410
0.066920 0.004893 0.014614 0.010362 0.954064 0.022222 0.016030 0.033346 0.022278
0.059501 0.011493 0.598619 0.221911 0.962819 0.036657 0.114222 0.163928 0.061529
0.466307 0.014925 0.678380 0.012006 0.150895 0.028205 0.014500 0.096444 0.006065
0.016205 0.949048 0.024604 0.093374 0.053766 0.093473 0.002593 0.042916 0.015436
0.023047 0.990724 0.014660 0.012764 0.011454 0.057139 0.003125 0.027925 0.007412
0.000971 0.010387 0.267633 0.531607 0.564980 0.017192 0.949395 0.207221 0.037836
0.240705 0.000234 0.021716 0.056361 0.002584 0.012216 0.353807 0.051409 0.015334
0.954062 0.000388 0.004146 0.005481 0.060679 0.037446 0.001109 0.012334 0.021948
0.198514 0.003484 0.015310 0.010462 0.885804 0.022128 0.026177 0.008927 0.007297
0.339407 0.003336 0.006692 0.006821 0.938237 0.011158 0.065184 0.009442 0.006701
0.144819 0.003918 0.017303 0.011839 0.973653 0.018483 0.034746 0.012494 0.023024
0.112119 0.002279 0.007309 0.002230 0.966356 0.015405 0.027072 0.012825 0.007564
0.270502 0.003069 0.396797 0.004727 0.038416 0.023673 0.001128 0.033989 0.015414
0.601232 0.000113 0.005386 0.006896 0.017377 0.020996 0.000471 0.067787 0.075980
0.450844 0.000869 0.004094 0.003202 0.578030 0.039430 0.001761 0.012016 0.010236
0.025811 0.010270 0.005373 0.073148 0.015199 0.420703 0.308078 0.332684 0.006199
0.714193 0.001002 0.024151 0.138991 0.029317 0.018310 0.001296 0.116421 0.032436
0.021142 0.819967 0.006741 0.011830 0.857803 0.016304 0.034011 0.021068 0.005302
0.201549 0.006732 0.840378 0.017026 0.446167 0.024348 0.005174 0.013766 0.030047
0.127104 0.106374 0.920128 0.012919 0.267091 0.038816 0.005425 0.041615 0.007974
0.576400 0.000173 0.006107 0.003743 0.077249 0.030094 0.002636 0.049611 0.025490
0.779406 0.030304 0.000816 0.003929 0.009951 0.392830 0.007134 0.015850 0.002823
0.033940 0.002553 0.005055 0.004609 0.970061 0.011740 0.019060 0.034096 0.012743
0.001776 0.003635 0.002417 0.023959 0.970360 0.314519 0.024783 0.067247 0.061191
0.000514 0.959229 0.124901 0.082992 0.059462 0.094368 0.003835 0.188238 0.018244
0.795708 0.013349 0.000939 0.003167 0.020627 0.376530 0.017100 0.005800 0.005162
0.069123 0.086815 0.042067 0.179681 0.475696 0.054693 0.324635 0.049591 0.012627
0.380954 0.003734 0.521779 0.019393 0.013614 0.008367 0.325866 0.015307 0.006737
0.946030 0.000300 0.005238 0.002330 0.012178 0.023433 0.000864 0.008800 0.013153
0.956305 0.000761 0.029254 0.003962 0.003379 0.016788 0.000823 0.025547 0.004953
0.809604 0.011152 0.961168 0.002520 0.032244 0.017373 0.003117 0.030025 0.002416
0.157961 0.063267 0.034985 0.086818 0.076226 0.184424 0.024622 0.358924 0.009188
0.387213 0.012136 0.006563 0.014698 0.062327 0.084864 0.006604 0.239697 0.006205
0.922864 0.001409 0.002905 0.012644 0.012269 0.129437 0.002228 0.023961 0.010104
0.989353 0.000085 0.002755 0.002582 0.000887 0.016505 0.000865 0.042755 0.006265
0.057081 0.000563 0.060556 0.080809 0.019883 0.120962 0.001680 0.357146 0.057134
0.794467 0.000995 0.005116 0.032885 0.005037 0.021598 0.006391 0.391812 0.008266
0.056446 0.913790 0.039678 0.017037 0.199643 0.032193 0.009029 0.018978 0.003869
0.953440 0.000287 0.003533 0.003633 0.008059 0.023797 0.000680 0.051199 0.008815
0.017564 0.921520 0.016575 0.074920 0.006533 0.049099 0.022852 0.425341 0.004386
0.602315 0.000793 0.154855 0.752927 0.042822 0.008383 0.002697 0.073815 0.015041
0.539127 0.032485 0.887333 0.032559 0.265102 0.033299 0.015579 0.060157 0.005655
0.167501 0.001026 0.026311 0.069558 0.005470 0.062393 0.002570 0.270833 0.010346
0.337954 0.001210 0.015582 0.006258 0.956642 0.023510 0.012476 0.015065 0.010688
0.732034 0.039711 0.785702 0.026234 0.137722 0.028045 0.006824 0.025056 0.011154
0.045300 0.005548 0.010620 0.022351 0.929863 0.041242 0.072469 0.078926 0.012771
0.100304 0.000231 0.035487 0.086938 0.038995 0.039226 0.000306 0.059663 0.728904
0.115936 0.005968 0.941512 0.911592 0.167424 0.018190 0.004843 0.027181 0.031287
0.003033 0.058807 0.137239 0.261799 0.856959 0.001788 0.968485 0.032794 0.030719
0.666589 0.000776 0.060896 0.002443 0.077546 0.008937 0.001211 0.014355 0.016330
0.547743 0.000145 0.019462 0.006337 0.138078 0.043026 0.000333 0.022592 0.044872
0.186255 0.022679 0.012118 0.009248 0.206415 0.211052 0.024127 0.097390 0.019086
0.855043 0.000409 0.002340 0.001934 0.570459 0.027783 0.001747 0.006007 0.010202
0.709311 0.011682 0.730133 0.001457 0.013896 0.030255 0.002145 0.015204 0.005734
0.622171 0.000732 0.100351 0.049765 0.232713 0.015083 0.043752 0.014347 0.034356
0.006894 0.000589 0.021818 0.020508 0.906992 0.125900 0.001594 0.047737 0.147460
0.028185 0.800775 0.104655 0.268815 0.058228 0.018593 0.086449 0.073692 0.007810
0.934683 0.001145 0.001888 0.002899 0.001097 0.025805 0.001437 0.207584 0.004591
0.043105 0.012077 0.008719 0.001908 0.952757 0.066485 0.015028 0.026339 0.008838
0.099917 0.000220 0.008247 0.014410 0.045614 0.086888 0.000303 0.076763 0.082384
0.642306 0.000654 0.011871 0.002717 0.955243 0.014070 0.006266 0.004133 0.007100
0.270449 0.001747 0.003571 0.022274 0.060958 0.034338 0.408880 0.065574 0.021988
0.156353 0.005028 0.713934 0.005279 0.119174 0.047480 0.000916 0.038305 0.020718
0.125145 0.001588 0.015045 0.022523 0.970382 0.015913 0.057127 0.012410 0.020971
0.450466 0.004594 0.015445 0.007035 0.393672 0.078166 0.002966 0.016799 0.023578
0.957413 0.000887 0.011257 0.014684 0.027838 0.018497 0.000730 0.013461 0.192194
0.008595 0.000360 0.034234 0.061825 0.866211 0.037457 0.000670 0.064968 0.389371
0.773214 0.000349 0.003648 0.006663 0.426532 0.055089 0.002601 0.025269 0.065393
0.007929 0.770180 0.033227 0.023732 0.894768 0.041607 0.091622 0.026052 0.008169
0.005243 0.000240 0.020485 0.009580 0.498864 0.032139 0.000182 0.199006 0.356184
0.614046 0.000887 0.004093 0.005437 0.038914 0.025639 0.977656 0.018884 0.001596
0.465831 0.022212 0.096575 0.051902 0.104272 0.024819 0.003775 0.142115 0.007845
0.847561 0.004251 0.126284 0.005311 0.023341 0.040438 0.001696 0.037460 0.008591
0.003046 0.008736 0.934983 0.052505 0.303325 0.057986 0.002405 0.105284 0.068121
0.746374 0.000123 0.038960 0.007461 0.024235 0.024389 0.000301 0.014564 0.055111
0.594629 0.000951 0.002203 0.001756 0.805701 0.024387 0.003687 0.009733 0.009329
0.033479 0.000422 0.010011 0.027785 0.062518 0.073416 0.011706 0.048108 0.082731
0.172846 0.012128 0.004926 0.021569 0.276607 0.534975 0.025366 0.015426 0.032274
0.265132 0.029334 0.001984 0.020665 0.050972 0.541915 0.038171 0.010533 0.003864
0.067978 0.973310 0.019399 0.027919 0.023277 0.017605 0.002499 0.092496 0.004130
0.136491 0.020906 0.222178 0.004641 0.842038 0.059696 0.008185 0.023381 0.007936
0.992120 0.000194 0.002736 0.001431 0.003232 0.019328 0.000808 0.010633 0.008053
0.981367 0.001173 0.043839 0.024074 0.012459 0.015958 0.009372 0.021510 0.023654
0.935302 0.005986 0.002309 0.004112 0.027401 0.048066 0.001414 0.025199 0.019066
0.900523 0.007637 0.010415 0.006217 0.208347 0.063569 0.010308 0.035472 0.012209
0.896534 0.002999 0.056810 0.015066 0.033026 0.035950 0.005859 0.010335 0.083019
0.989421 0.000777 0.004116 0.001761 0.002489 0.042111 0.001933 0.011670 0.006162
0.985590 0.001412 0.257527 0.003939 0.002165 0.011099 0.001122 0.007574 0.006389
0.975024 0.002354 0.032444 0.017194 0.003117 0.027320 0.021807 0.040938 0.011335
0.989299 0.000375 0.008650 0.006501 0.019249 0.023550 0.001133 0.003767 0.027880
0.965187 0.002586 0.005823 0.003164 0.088486 0.026933 0.001448 0.019438 0.021595
0.995216 0.000101 0.000907 0.001316 0.007946 0.025605 0.000450 0.012298 0.009102
0.984934 0.000137 0.002135 0.004871 0.077095 0.019829 0.001765 0.012036 0.045517
0.938284 0.000823 0.012173 0.011322 0.060262 0.027370 0.002279 0.031311 0.186254
0.994140 0.000421 0.004200 0.002606 0.005130 0.022147 0.000538 0.017023 0.007685
0.991714 0.000405 0.000868 0.000588 0.002894 0.027513 0.000612 0.005278 0.010154
0.990754 0.000326 0.056092 0.003518 0.003160 0.009156 0.000723 0.003219 0.012036
0.980730 0.001086 0.001006 0.000786 0.002008 0.064974 0.001449 0.006853 0.007685
0.931631 0.001678 0.133742 0.028369 0.027176 0.033071 0.003340 0.027591 0.036590
0.991643 0.000239 0.005370 0.003971 0.007639 0.018490 0.000794 0.003747 0.022804
0.991635 0.000090 0.004683 0.004787 0.006759 0.019351 0.000886 0.008847 0.016714
0.974172 0.001439 0.009499 0.015204 0.013119 0.074884 0.001944 0.016380 0.007720
0.553291 0.114266 0.432466 0.057120 0.074373 0.022326 0.091030 0.020599 0.014408
0.992065 0.000067 0.000934 0.002177 0.006135 0.021725 0.000763 0.006077 0.030602
0.959585 0.000818 0.001479 0.002445 0.038420 0.051994 0.001204 0.018317 0.008017
0.977990 0.000281 0.002760 0.001788 0.006606 0.021274 0.001366 0.018925 0.041378
0.992207 0.000155 0.006439 0.001790 0.018602 0.018461 0.000622 0.005372 0.021453
0.963424 0.001160 0.002109 0.003444 0.017403 0.058695 0.003470 0.033280 0.002855
0.781973 0.008923 0.006458 0.060362 0.005024 0.046716 0.009452 0.279360 0.014878
0.997688 0.000085 0.001429 0.003269 0.004492 0.027919 0.000644 0.007178 0.012759
0.365330 0.838632 0.003755 0.004031 0.010514 0.137210 0.003151 0.031465 0.018348
0.996202 0.000170 0.002137 0.001236 0.001484 0.023994 0.003053 0.058046 0.003908
0.986333 0.000253 0.001444 0.002380 0.003825 0.023642 0.001104 0.066174 0.005771
0.985983 0.000942 0.002515 0.001896 0.003007 0.055901 0.006567 0.033358 0.006197
0.989685 0.000334 0.002435 0.010728 0.016149 0.027934 0.000736 0.007760 0.039943
0.906150 0.001044 0.005113 0.040012 0.177747 0.055444 0.003839 0.027316 0.173246
0.997582 0.000101 0.001546 0.001483 0.002897 0.014148 0.000348 0.004859 0.019718
0.982709 0.001865 0.003331 0.001072 0.010370 0.036000 0.001350 0.036730 0.023060
0.989429 0.000405 0.001883 0.001502 0.006064 0.040002 0.001031 0.061195 0.004876
0.952514 0.000446 0.005065 0.002669 0.065048 0.058654 0.001178 0.017902 0.011013
0.984602 0.000401 0.065646 0.015276 0.013018 0.011785 0.001111 0.005498 0.042526
0.805598 0.040083 0.607428 0.034437 0.012964 0.005751 0.071276 0.056165 0.004311
0.785503 0.000253 0.001009 0.001352 0.609061 0.076419 0.002298 0.009573 0.019313
0.845577 0.008173 0.012062 0.057115 0.017789 0.271270 0.036037 0.060127 0.015317
0.837497 0.273987 0.006002 0.009144 0.004038 0.063885 0.002458 0.268043 0.012932
0.986819 0.000123 0.002605 0.004697 0.008566 0.025044 0.000769 0.006995 0.027992
0.962599 0.001467 0.048147 0.017152 0.002546 0.027866 0.004009 0.093097 0.003203
0.984850 0.008292 0.004407 0.001338 0.004041 0.022976 0.002242 0.059470 0.022014
0.924925 0.000585 0.002578 0.001995 0.528427 0.030020 0.004879 0.017311 0.006730
0.174005 0.342639 0.069761 0.081644 0.642361 0.011662 0.645218 0.080311 0.005433
0.996157 0.000299 0.001558 0.004321 0.001105 0.033500 0.001399 0.027758 0.010465
0.992744 0.000158 0.001470 0.002016 0.022137 0.015642 0.001155 0.013934 0.011649
0.082670 0.515658 0.072403 0.451693 0.017396 0.020527 0.111612 0.093292 0.012364
0.969590 0.000310 0.004593 0.004336 0.094940 0.037470 0.001310 0.004392 0.034998
0.093070 0.845644 0.007137 0.063992 0.553267 0.015653 0.149597 0.094331 0.006173
0.915181 0.003327 0.014711 0.050965 0.019991 0.026822 0.003835 0.114147 0.012963
0.423093 0.103006 0.124431 0.097636 0.474136 0.054218 0.304754 0.026128 0.005606
0.959951 0.001458 0.006356 0.025439 0.003026 0.015528 0.015552 0.132068 0.024090
0.966112 0.000543 0.091532 0.007479 0.004775 0.013902 0.001344 0.006025 0.009678
0.996514 0.000077 0.002516 0.001067 0.003126 0.013978 0.000616 0.010382 0.008320
0.927807 0.000765 0.007185 0.005014 0.098997 0.012846 0.074481 0.038316 0.018578
0.408540 0.860421 0.009165 0.013050 0.022755 0.022601 0.005074 0.092559 0.004569
0.996599 0.000169 0.000945 0.001018 0.001810 0.021156 0.000555 0.009043 0.016728
0.941616 0.001085 0.003462 0.014609 0.022367 0.030375 0.001277 0.236671 0.007786
0.995229 0.000257 0.002210 0.005355 0.002383 0.014308 0.004599 0.013440 0.015724
0.994518 0.000316 0.001799 0.014514 0.000968 0.019560 0.001860 0.032402 0.023207
0.575244 0.016310 0.199871 0.015468 0.922525 0.011710 0.090133 0.015712 0.008679
0.979935 0.000819 0.003648 0.004265 0.003639 0.046606 0.001579 0.024848 0.005933
0.071697 0.922464 0.013714 0.189735 0.012585 0.044667 0.560041 0.232737 0.002719
0.197914 0.950958 0.009007 0.002688 0.001991 0.070286 0.004615 0.030521 0.004334
0.995014 0.000174 0.001611 0.000652 0.006358 0.013796 0.000592 0.009085 0.007941
0.996720 0.000200 0.005771 0.001940 0.001201 0.016707 0.001044 0.008185 0.006243
0.110941 0.631674 0.062900 0.460739 0.143304 0.069696 0.406489 0.163092 0.015544
0.921878 0.001985 0.001849 0.002086 0.045872 0.066459 0.004037 0.090198 0.010499
0.862307 0.053363 0.876243 0.277472 0.011196 0.005744 0.042847 0.054722 0.005281
0.813139 0.018288 0.474191 0.027220 0.038415 0.047617 0.005527 0.097888 0.006439
0.978901 0.000540 0.001063 0.003176 0.008038 0.037323 0.000618 0.107565 0.006311
0.995450 0.000181 0.006265 0.004258 0.004092 0.028504 0.001709 0.026827 0.010280
0.990666 0.000229 0.001368 0.001244 0.008836 0.027289 0.000559 0.011327 0.024390
0.849083 0.005591 0.011408 0.039147 0.020979 0.040423 0.021764 0.324891 0.010479
0.793599 0.006060 0.227844 0.007873 0.210559 0.053143 0.001637 0.016047 0.007097
0.997281 0.000194 0.001483 0.002350 0.001816 0.028563 0.001797 0.023947 0.012486
0.660058 0.295112 0.347053 0.004441 0.072252 0.172775 0.012811 0.023976 0.004422
0.993026 0.001424 0.027918 0.002962 0.002107 0.016869 0.001089 0.007376 0.010602
0.183564 0.024816 0.752333 0.573452 0.338966 0.002780 0.986592 0.025050 0.004377
0.774434 0.006006 0.008648 0.009802 0.002027 0.096930 0.924564 0.054207 0.001831
0.973530 0.001705 0.002693 0.002649 0.027141 0.018603 0.025424 0.070194 0.005906
0.995978 0.000055 0.003311 0.001301 0.003928 0.016528 0.000466 0.004134 0.025416
0.990158 0.000314 0.003509 0.001592 0.018935 0.034132 0.004068 0.034681 0.011413
0.988540 0.000486 0.002391 0.001768 0.009722 0.057691 0.001781 0.075405 0.005487
0.993875 0.000050 0.003007 0.012510 0.007310 0.020797 0.002522 0.005611 0.031652
0.973215 0.000701 0.006794 0.003762 0.042069 0.039082 0.001633 0.010483 0.008350
0.980138 0.000244 0.005432 0.006533 0.070598 0.029551 0.001262 0.005465 0.027321
0.988973 0.000657 0.003875 0.001463 0.037547 0.047345 0.002088 0.033479 0.010394
0.997006 0.000461 0.015312 0.004536 0.000981 0.034024 0.001994 0.011009 0.003253
0.971687 0.000760 0.021488 0.025953 0.015044 0.060788 0.002610 0.162462 0.005424
0.083633 0.607338 0.037587 0.073411 0.005525 0.085096 0.009491 0.090770 0.006548
0.461138 0.061545 0.030332 0.960696 0.033660 0.146523 0.218426 0.021454 0.011481
0.996525 0.000138 0.009162 0.004314 0.004249 0.015015 0.000769 0.002128 0.015354
0.990817 0.000215 0.003441 0.003282 0.008165 0.026455 0.001422 0.026378 0.004951
0.986944 0.000543 0.001237 0.001535 0.003954 0.024790 0.001329 0.081395 0.009109
0.429154 0.037323 0.308903 0.320129 0.071055 0.049561 0.781770 0.049820 0.004288
0.989411 0.000149 0.002830 0.002671 0.007145 0.028000 0.003382 0.105966 0.004787
0.961045 0.000939 0.006013 0.004650 0.015989 0.042587 0.001986 0.125991 0.003728
0.992577 0.000221 0.001155 0.002178 0.002520 0.040277 0.002618 0.015379 0.012805
0.926276 0.000859 0.003991 0.009563 0.151349 0.058027 0.004532 0.182287 0.021810
0.908628 0.000649 0.006346 0.004961 0.301465 0.032604 0.001903 0.012447 0.048241
0.591633 0.005884 0.245675 0.042969 0.855094 0.032291 0.257083 0.040083 0.007126
0.127309 0.898003 0.004414 0.025963 0.319271 0.058813 0.064232 0.051276 0.007126
0.994612 0.000190 0.003761 0.002103 0.009962 0.020277 0.000820 0.004627 0.012533
0.425848 0.176697 0.026128 0.070236 0.291901 0.107766 0.006116 0.064189 0.042628
0.996219 0.000082 0.001931 0.001676 0.007062 0.020603 0.000866 0.012627 0.009711
0.974500 0.002078 0.007969 0.010344 0.001476 0.046893 0.027392 0.153852 0.004555
0.987384 0.000777 0.003410 0.002109 0.002537 0.019663 0.000521 0.007880 0.023101
0.950558 0.005860 0.547833 0.002672 0.002796 0.023073 0.003276 0.038995 0.005023
0.293746 0.146741 0.209739 0.141797 0.569373 0.023292 0.639834 0.163906 0.023316
0.994267 0.000340 0.000894 0.001322 0.003201 0.018996 0.000639 0.040815 0.008694
0.989419 0.000099 0.001028 0.001781 0.015689 0.026008 0.000716 0.006513 0.022168
0.824692 0.000513 0.004368 0.002622 0.769359 0.019379 0.030054 0.026769 0.008994
0.988861 0.002029 0.005269 0.014713 0.004501 0.029103 0.011930 0.021370 0.015071
0.990347 0.000513 0.008392 0.004239 0.019725 0.031211 0.000864 0.011374 0.007829
0.988299 0.000277 0.003138 0.005247 0.036502 0.026110 0.000959 0.005957 0.039446
0.677288 0.025640 0.047712 0.078027 0.001599 0.100997 0.945789 0.016120 0.003638
0.977438 0.001379 0.002112 0.002704 0.013587 0.045506 0.002532 0.035340 0.033891
0.984037 0.000898 0.003091 0.011191 0.001719 0.042554 0.001563 0.014115 0.016128
0.987969 0.001573 0.019690 0.006232 0.015742 0.026142 0.004612 0.031954 0.010273
0.989173 0.000895 0.014581 0.001299 0.017775 0.028423 0.001771 0.010790 0.015316
0.979511 0.000724 0.001504 0.002571 0.003661 0.061753 0.000707 0.146159 0.007364
0.973271 0.001218 0.134789 0.011916 0.011646 0.027202 0.001956 0.013971 0.007922
0.910677 0.010796 0.883060 0.001915 0.002616 0.022451 0.002859 0.071023 0.001891
0.994883 0.000244 0.001901 0.001490 0.001794 0.055204 0.001942 0.035698 0.011021
0.987860 0.000450 0.001906 0.004089 0.004944 0.031339 0.002577 0.063598 0.009213
0.905671 0.002327 0.003066 0.013187 0.005566 0.118818 0.644584 0.023523 0.003411
0.088083 0.856158 0.011570 0.225026 0.080577 0.026703 0.537433 0.108977 0.003551
0.970320 0.000309 0.004507 0.003780 0.020654 0.049148 0.000829 0.019737 0.024069
0.993770 0.000049 0.003562 0.012185 0.001117 0.011858 0.000730 0.015951 0.012639
0.961156 0.003660 0.432740 0.005768 0.019169 0.012059 0.001582 0.003952 0.012717
0.969559 0.000888 0.009842 0.005839 0.009342 0.048598 0.004392 0.039534 0.005014
0.335811 0.124423 0.028096 0.129964 0.175552 0.264096 0.160888 0.097452 0.017134
0.025702 0.944999 0.013582 0.664787 0.041827 0.010128 0.177549 0.164391 0.007916
0.995727 0.000158 0.000830 0.000963 0.002298 0.030016 0.000657 0.038770 0.007867
0.931898 0.001715 0.003170 0.008337 0.048100 0.044915 0.001568 0.063612 0.007477
0.904580 0.001873 0.002038 0.010031 0.005482 0.305087 0.005770 0.024082 0.003496
0.990263 0.000265 0.008892 0.002829 0.009187 0.015686 0.000685 0.009242 0.008539
0.994230 0.000350 0.036105 0.003251 0.001183 0.020302 0.001454 0.004405 0.003864
0.935198 0.002445 0.020741 0.007628 0.013480 0.053500 0.005070 0.093645 0.004552
0.630979 0.133207 0.015836 0.009333 0.192219 0.048431 0.021036 0.141309 0.012335
0.994378 0.000148 0.001900 0.003315 0.001487 0.018525 0.000947 0.020844 0.009829
0.979831 0.001362 0.290012 0.003126 0.023916 0.016622 0.001198 0.005813 0.012705
0.941207 0.010366 0.016636 0.009479 0.007157 0.046275 0.052103 0.087680 0.008824
0.588731 0.004600 0.107699 0.028757 0.922998 0.023875 0.058520 0.038793 0.014507
0.994823 0.000212 0.001471 0.001747 0.010687 0.022027 0.000890 0.012233 0.007680
0.997918 0.000073 0.001783 0.001505 0.003219 0.020063 0.000765 0.014651 0.021838
0.499242 0.766715 0.022715 0.082927 0.012971 0.019288 0.006631 0.224626 0.013533
0.923753 0.004713 0.685372 0.002503 0.015195 0.013061 0.008396 0.061779 0.003369
0.990181 0.000194 0.003497 0.001366 0.006965 0.037197 0.001154 0.021329 0.008019
0.987829 0.000216 0.007276 0.002840 0.018387 0.026083 0.001843 0.032598 0.009587
0.972573 0.000811 0.005275 0.004214 0.082836 0.048343 0.001967 0.023780 0.014978
0.951809 0.002002 0.005358 0.005955 0.008563 0.130942 0.003932 0.023287 0.004951
0.330243 0.002562 0.010427 0.017146 0.637530 0.009553 0.695180 0.010181 0.003539
0.991005 0.000231 0.000770 0.002010 0.000876 0.020871 0.001655 0.135906 0.006159
0.945975 0.001817 0.109141 0.002166 0.019569 0.016774 0.000856 0.010270 0.027473
0.985348 0.001351 0.002833 0.004554 0.002394 0.057466 0.007237 0.039171 0.004022
0.983208 0.000290 0.006452 0.009506 0.039683 0.027448 0.001626 0.013258 0.027942
0.923839 0.005513 0.049293 0.005505 0.252164 0.061801 0.004747 0.007221 0.009703
0.988750 0.000086 0.003457 0.000788 0.009830 0.019747 0.000573 0.016202 0.014226
0.965492 0.004663 0.032053 0.008886 0.044714 0.031141 0.002012 0.010684 0.019366
0.929827 0.018302 0.685856 0.004796 0.002117 0.017267 0.002596 0.020921 0.001443
0.970143 0.000354 0.001082 0.001916 0.018383 0.024937 0.001401 0.014103 0.027342
0.881300 0.002174 0.008828 0.026903 0.001178 0.076489 0.018452 0.160623 0.001606
0.825921 0.004093 0.042012 0.030711 0.053501 0.040704 0.087892 0.212750 0.020797
0.991547 0.000434 0.002116 0.001230 0.008865 0.039210 0.001945 0.022182 0.008405
0.979329 0.002276 0.062645 0.003182 0.011584 0.023387 0.001483 0.006142 0.006278
0.977328 0.001273 0.002231 0.003574 0.004174 0.028213 0.001453 0.037702 0.005620
0.098957 0.978456 0.014688 0.081442 0.001753 0.073639 0.009389 0.027494 0.003096
0.994898 0.000072 0.002019 0.004910 0.009615 0.037773 0.001476 0.008517 0.017343
0.796656 0.006816 0.002771 0.080470 0.009734 0.137802 0.005062 0.353273 0.008319
0.895965 0.006606 0.546322 0.002555 0.103144 0.028479 0.003229 0.026231 0.007543
0.071366 0.990663 0.004486 0.153300 0.003292 0.136461 0.014400 0.234431 0.006151
0.508042 0.081247 0.005574 0.123444 0.002357 0.106919 0.333192 0.041564 0.003761
0.927322 0.000472 0.001129 0.008445 0.294850 0.036731 0.002947 0.016558 0.035080
0.996643 0.000332 0.017109 0.004205 0.000844 0.028674 0.001871 0.005070 0.004374
0.977953 0.001291 0.023344 0.004552 0.003566 0.058837 0.001934 0.044170 0.004303
0.645454 0.002418 0.005842 0.002789 0.938307 0.046154 0.009253 0.012004 0.009443
0.984304 0.001033 0.011414 0.002567 0.001940 0.034775 0.001658 0.006420 0.005087
0.921414 0.001579 0.124491 0.001615 0.039685 0.017983 0.001041 0.015634 0.044177
0.990672 0.000237 0.001312 0.001046 0.000999 0.020442 0.000822 0.097105 0.002791
0.971398 0.001400 0.007567 0.007117 0.003554 0.066834 0.002624 0.013380 0.004263
0.995803 0.000423 0.001689 0.003211 0.000615 0.013107 0.018660 0.031988 0.005422
0.992612 0.000179 0.005328 0.002993 0.011130 0.020421 0.002248 0.015854 0.019808
0.876583 0.003948 0.004973 0.045211 0.000998 0.042797 0.012611 0.276641 0.013122
0.978123 0.000210 0.002788 0.005614 0.155023 0.022001 0.000985 0.004672 0.024868
0.879243 0.003130 0.004652 0.160142 0.002045 0.118137 0.627311 0.051195 0.009085
0.735185 0.034422 0.466236 0.035984 0.095345 0.015042 0.005330 0.125630 0.007795
0.704461 0.043447 0.573804 0.080983 0.016535 0.047363 0.034468 0.206934 0.005021
0.960553 0.003219 0.004933 0.013427 0.127481 0.071551 0.002513 0.044778 0.041644
0.486468 0.118386 0.040460 0.048303 0.402507 0.055992 0.042435 0.105901 0.023911
0.972482 0.000790 0.002756 0.018543 0.008904 0.033932 0.001404 0.120484 0.006871
0.991725 0.000239 0.000766 0.000854 0.006732 0.027338 0.000727 0.028941 0.012058
0.994053 0.000548 0.004363 0.005247 0.002874 0.036900 0.002044 0.009365 0.023756
0.962354 0.000406 0.001481 0.003782 0.037103 0.027847 0.000739 0.024799 0.017460
0.989354 0.000137 0.013959 0.001756 0.006066 0.018128 0.000773 0.006209 0.009211
0.974796 0.001399 0.200600 0.012274 0.003375 0.026356 0.001620 0.015237 0.011600
0.920596 0.007098 0.018398 0.007390 0.014721 0.039439 0.001153 0.019289 0.061290
0.318283 0.192778 0.118429 0.013674 0.876316 0.026597 0.070981 0.009364 0.007696
0.975421 0.001214 0.003001 0.003939 0.002691 0.039608 0.001469 0.012199 0.010907
0.641783 0.012464 0.011343 0.146151 0.013734 0.281386 0.240605 0.263455 0.003752
0.995438 0.000279 0.000840 0.001035 0.003832 0.018024 0.001057 0.020054 0.010683
0.980976 0.000800 0.017595 0.009579 0.007237 0.035925 0.015723 0.059305 0.011972
0.977548 0.000405 0.010361 0.010879 0.029442 0.009756 0.046753 0.011706 0.008761
0.997673 0.000116 0.002543 0.001262 0.001364 0.019654 0.000979 0.018670 0.003926
0.991424 0.000235 0.002701 0.005795 0.000933 0.023517 0.006659 0.062834 0.005640
0.992454 0.000176 0.002291 0.001122 0.005528 0.038286 0.001339 0.011110 0.017625
0.849592 0.016504 0.712249 0.010919 0.011470 0.031102 0.004275 0.014984 0.012468
0.988969 0.000886 0.009782 0.005850 0.009819 0.051781 0.001353 0.024924 0.006075
0.907302 0.021133 0.269501 0.001586 0.005912 0.013924 0.002240 0.026050 0.013244
0.890129 0.002825 0.016645 0.036613 0.235186 0.031980 0.008673 0.061708 0.090331
0.595317 0.060177 0.002809 0.009828 0.002032 0.232595 0.414440 0.133128 0.004056
0.836054 0.024093 0.006012 0.005709 0.023334 0.267462 0.007410 0.035421 0.002991
0.994395 0.000205 0.003262 0.005020 0.003879 0.026636 0.001154 0.008705 0.016413
0.449897 0.385144 0.053543 0.086833 0.001549 0.110355 0.281534 0.293103 0.014545
0.987302 0.000689 0.009499 0.001078 0.006024 0.017181 0.001038 0.007183 0.010860
0.919130 0.002009 0.463592 0.001187 0.042294 0.028892 0.002649 0.014610 0.014514
0.266839 0.561311 0.015950 0.020266 0.189315 0.437680 0.046293 0.107834 0.006741
0.063030 0.395885 0.020081 0.058722 0.894674 0.023244 0.311465 0.016941 0.008951
0.976163 0.000577 0.002227 0.003111 0.015077 0.044584 0.001092 0.019733 0.008852
0.851340 0.016911 0.004089 0.001266 0.049426 0.060299 0.001511 0.044987 0.012983
0.987736 0.000951 0.003753 0.003542 0.006516 0.050675 0.004154 0.010567 0.005961
0.992265 0.000368 0.002473 0.004101 0.003920 0.032427 0.001461 0.054761 0.004294
0.421924 0.035147 0.003234 0.015733 0.644545 0.324582 0.418206 0.057361 0.005336
0.889131 0.020838 0.003581 0.004313 0.005530 0.361744 0.027512 0.088451 0.015634
0.994797 0.000584 0.002431 0.011318 0.002906 0.018497 0.001345 0.019936 0.021855
0.981791 0.001297 0.009190 0.004326 0.074061 0.043977 0.002634 0.042977 0.018904
0.968126 0.000370 0.002358 0.000880 0.013797 0.032205 0.000969 0.052305 0.010559
0.976143 0.000956 0.007973 0.082835 0.000991 0.049796 0.003391 0.094281 0.007139
0.991694 0.000373 0.004265 0.000696 0.013342 0.027537 0.001004 0.018344 0.021801
0.908927 0.002334 0.049489 0.013020 0.080633 0.025855 0.002784 0.058673 0.003161
0.791984 0.028078 0.074206 0.077369 0.032327 0.108686 0.053575 0.041395 0.007212
0.976112 0.000605 0.001375 0.001527 0.010963 0.041209 0.000687 0.007473 0.009467
0.552935 0.056645 0.007199 0.033816 0.016865 0.108750 0.005984 0.076271 0.003142
0.937386 0.000573 0.136761 0.990875 0.060892 0.003363 0.039863 0.015782 0.026380
0.983101 0.001296 0.021982 0.005860 0.027673 0.044827 0.001710 0.002616 0.006353
0.991684 0.000255 0.005976 0.001217 0.008828 0.025883 0.000715 0.013987 0.010779
0.941892 0.003227 0.000553 0.001290 0.041738 0.066948 0.002266 0.022354 0.012040
0.996783 0.000058 0.002301 0.000762 0.001897 0.013165 0.000558 0.005797 0.007869
0.100642 0.922015 0.053487 0.016262 0.001966 0.092181 0.017569 0.111022 0.002987
0.998292 0.000098 0.003463 0.001730 0.001898 0.013667 0.000641 0.003617 0.012453
0.995584 0.000206 0.006359 0.002278 0.007341 0.017005 0.000620 0.006205 0.010200
0.229668 0.786363 0.071232 0.017315 0.007668 0.060436 0.014955 0.098081 0.004922
0.982358 0.000439 0.003587 0.003374 0.034027 0.040778 0.010078 0.040867 0.024255
0.955997 0.001675 0.002353 0.004799 0.003618 0.119868 0.011200 0.013819 0.011773
0.992884 0.000754 0.057317 0.005861 0.005951 0.036436 0.002624 0.007433 0.007609
0.838672 0.030715 0.038807 0.008689 0.009840 0.167674 0.004383 0.012355 0.014123
0.980671 0.000389 0.001574 0.001888 0.016351 0.047627 0.001964 0.085316 0.005896
0.930225 0.003275 0.004138 0.011766 0.049373 0.130057 0.003982 0.032956 0.012757
0.092006 0.953591 0.011931 0.024834 0.060017 0.168807 0.036694 0.063531 0.006628
0.114659 0.933764 0.020071 0.105563 0.003782 0.138059 0.038882 0.142982 0.004277
0.836405 0.052659 0.174822 0.281056 0.004361 0.157610 0.015635 0.125530 0.004359
0.966106 0.000360 0.002773 0.002177 0.038244 0.051472 0.002119 0.010105 0.026307
0.985846 0.000189 0.002600 0.002701 0.006400 0.014105 0.001072 0.027494 0.015740
0.891837 0.008055 0.046750 0.082472 0.037811 0.025119 0.003188 0.176349 0.011864
0.984792 0.000813 0.013473 0.004124 0.005408 0.018700 0.000710 0.002705 0.007649
0.983618 0.007381 0.017111 0.005305 0.005769 0.087513 0.023776 0.015302 0.009946
0.959005 0.000959 0.004941 0.003322 0.087645 0.030652 0.000867 0.013333 0.007838
0.153375 0.026419 0.213163 0.221997 0.900794 0.010304 0.426665 0.036991 0.040330
0.940416 0.000938 0.001272 0.025486 0.000535 0.035837 0.703239 0.103704 0.002259
0.822351 0.000599 0.008387 0.007259 0.605732 0.057927 0.005229 0.018551 0.067663
0.954814 0.001181 0.002907 0.003572 0.002339 0.030209 0.002536 0.142623 0.003572
0.931912 0.000587 0.014336 0.001839 0.499072 0.024721 0.001567 0.004190 0.010652
0.981762 0.000490 0.005142 0.004475 0.013593 0.051566 0.003178 0.031868 0.023423
0.973765 0.000511 0.000761 0.002895 0.024516 0.028456 0.000720 0.065308 0.009869
0.982125 0.000392 0.001223 0.001516 0.020246 0.045040 0.000896 0.052059 0.023089
0.988123 0.000820 0.001826 0.001505 0.011413 0.035191 0.001272 0.008148 0.007630
0.982466 0.003238 0.018641 0.005798 0.014191 0.086600 0.002838 0.011837 0.007427
0.987546 0.000502 0.004677 0.002570 0.006303 0.016296 0.015195 0.035014 0.010930
0.140261 0.721768 0.005822 0.041877 0.015300 0.157889 0.083454 0.140572 0.006422
0.855376 0.001488 0.030640 0.126797 0.050560 0.015089 0.004026 0.076966 0.014389
0.983969 0.000450 0.002494 0.001706 0.037832 0.037028 0.000873 0.031636 0.021986
0.979471 0.001009 0.016109 0.381976 0.002715 0.030612 0.004898 0.074220 0.009908
0.990691 0.000377 0.030108 0.014371 0.004329 0.012080 0.000777 0.005300 0.006957
0.963509 0.009424 0.037789 0.027058 0.041687 0.048243 0.003934 0.031359 0.015275
0.996894 0.000260 0.001171 0.001589 0.001510 0.025353 0.000692 0.020985 0.011147
0.997744 0.000039 0.005137 0.003899 0.001386 0.010161 0.000752 0.004691 0.016855
0.947246 0.000770 0.002695 0.013336 0.136421 0.024091 0.004566 0.029504 0.006817
0.986096 0.001537 0.000764 0.002338 0.008406 0.034273 0.000681 0.015798 0.019231
0.995576 0.000371 0.002763 0.002970 0.000380 0.018351 0.001590 0.040638 0.014447
0.995248 0.000056 0.001790 0.000627 0.008088 0.019747 0.001050 0.008318 0.018884
0.961226 0.000894 0.055307 0.001983 0.010382 0.021292 0.001213 0.012723 0.006478
0.898092 0.000505 0.003457 0.006849 0.056610 0.057479 0.002971 0.024134 0.068662
0.901854 0.000859 0.002683 0.028669 0.000453 0.064343 0.927624 0.008928 0.000603
0.945745 0.038629 0.091283 0.008219 0.015595 0.091087 0.012667 0.017409 0.005096
0.992402 0.000800 0.007499 0.005348 0.002449 0.058434 0.005517 0.023811 0.004629
0.986287 0.000905 0.013510 0.066092 0.002132 0.046613 0.001832 0.045895 0.004730
0.984314 0.000919 0.008443 0.067405 0.002426 0.031153 0.001162 0.080925 0.006307
0.912319 0.008352 0.001829 0.009619 0.001348 0.255376 0.720392 0.029418 0.001472
0.996405 0.000244 0.002978 0.001787 0.006734 0.026139 0.001102 0.018018 0.012824
0.996640 0.000057 0.000937 0.000918 0.001975 0.025240 0.000542 0.023750 0.008274
0.957146 0.001204 0.090402 0.007785 0.052826 0.017371 0.000881 0.006993 0.017065
0.996030 0.000076 0.001194 0.000610 0.011157 0.013928 0.000622 0.008408 0.009271
0.971300 0.000207 0.079372 0.940219 0.022719 0.008571 0.004844 0.005599 0.027639
0.755374 0.007008 0.716263 0.707015 0.069584 0.010798 0.036040 0.011153 0.013540
0.987282 0.000451 0.004271 0.002637 0.021019 0.043577 0.001265 0.017690 0.009276
0.980107 0.000136 0.003424 0.007916 0.041218 0.031424 0.002344 0.020282 0.017973
0.962590 0.001442 0.002150 0.004232 0.037424 0.044336 0.002894 0.042811 0.018758
0.140712 0.957699 0.011129 0.023219 0.004340 0.172151 0.005419 0.044399 0.002612
0.989967 0.000573 0.002460 0.002633 0.003104 0.036825 0.001004 0.006841 0.012966
0.989323 0.000701 0.004197 0.002651 0.006741 0.039091 0.001293 0.035720 0.009685
0.895203 0.001475 0.055202 0.048961 0.445727 0.033803 0.050966 0.057166 0.016214
0.098723 0.774136 0.012297 0.044964 0.811931 0.053502 0.066304 0.021272 0.007163
0.976080 0.000916 0.007661 0.010409 0.052121 0.032030 0.007177 0.042793 0.026045
0.969075 0.000578 0.001156 0.002906 0.052841 0.026310 0.000637 0.014949 0.018925
0.981916 0.001225 0.002956 0.001811 0.011024 0.059222 0.002434 0.057632 0.014969
0.980930 0.001350 0.017888 0.010118 0.005959 0.029283 0.005947 0.028654 0.009074
0.980092 0.002142 0.003889 0.005050 0.012532 0.089204 0.001581 0.013674 0.006168
0.897577 0.009204 0.083404 0.025702 0.115094 0.063671 0.004634 0.153686 0.017358
0.983804 0.000368 0.001353 0.001024 0.003577 0.037067 0.000736 0.039676 0.009655
0.994668 0.000117 0.002268 0.001742 0.005090 0.021107 0.000736 0.012393 0.008090
0.109876 0.857296 0.022165 0.101762 0.096040 0.295832 0.047415 0.330459 0.016591
0.984581 0.000979 0.003897 0.002049 0.005216 0.030068 0.001457 0.014137 0.009620
0.982791 0.000592 0.011954 0.007460 0.006916 0.047295 0.003561 0.057572 0.006089
0.995230 0.000231 0.009205 0.005846 0.002166 0.022199 0.002003 0.015575 0.019799
0.511768 0.027368 0.002905 0.009550 0.092701 0.438652 0.026280 0.036797 0.013429
0.441071 0.025336 0.002644 0.047990 0.031738 0.716996 0.126212 0.082080 0.002133
0.996735 0.000250 0.000995 0.000800 0.001376 0.023230 0.000652 0.031735 0.004657
0.992311 0.000595 0.006228 0.002983 0.002651 0.057083 0.001320 0.023919 0.004638
0.995791 0.000512 0.032411 0.004174 0.001948 0.028584 0.001546 0.011178 0.005089
0.240648 0.219256 0.201418 0.007390 0.890051 0.010895 0.090179 0.009675 0.004739
0.992451 0.000227 0.012708 0.002002 0.005288 0.025087 0.000974 0.037106 0.008325
0.186506 0.719376 0.061260 0.063330 0.002029 0.087050 0.009336 0.045504 0.003078
0.800576 0.015136 0.763944 0.011016 0.015049 0.022976 0.002094 0.033224 0.002136
0.944235 0.004104 0.156639 0.008732 0.038746 0.022748 0.001398 0.016258 0.015875
0.961434 0.001314 0.291673 0.003192 0.012634 0.016867 0.001068 0.007761 0.004941
0.654500 0.030530 0.028331 0.067504 0.075589 0.061518 0.015249 0.357783 0.010207
0.825414 0.002478 0.367982 0.003624 0.106533 0.032799 0.003125 0.006117 0.016278
0.924024 0.009173 0.004815 0.013412 0.004814 0.040929 0.003923 0.293498 0.018276
0.959495 0.000607 0.348860 0.000858 0.004034 0.012495 0.001094 0.008259 0.007421
0.952492 0.013908 0.019155 0.003837 0.004253 0.041400 0.001746 0.097821 0.030436
0.992611 0.000362 0.002835 0.004352 0.014263 0.016474 0.000646 0.010024 0.017343
0.755110 0.202327 0.852719 0.004111 0.003648 0.038391 0.008593 0.031478 0.003097
0.972081 0.001150 0.010631 0.003021 0.005473 0.022820 0.001258 0.015837 0.006636
0.981374 0.000969 0.004376 0.003249 0.011170 0.020502 0.001823 0.009480 0.006995
0.893211 0.008477 0.013677 0.005312 0.001944 0.023527 0.501947 0.014468 0.003299
0.262568 0.912929 0.008980 0.017912 0.004123 0.066002 0.004637 0.107642 0.006799
0.888599 0.002650 0.004264 0.037404 0.002081 0.142870 0.209537 0.049791 0.002930
0.978205 0.000883 0.001284 0.002133 0.002233 0.032052 0.001403 0.051270 0.023320
0.993080 0.000214 0.001930 0.001742 0.021013 0.020691 0.001411 0.015616 0.013899
0.721436 0.000504 0.004544 0.006852 0.868235 0.020234 0.070404 0.024482 0.009767
0.108868 0.910668 0.005272 0.008372 0.008537 0.048621 0.020726 0.177687 0.001855
0.978680 0.001605 0.029355 0.004877 0.002615 0.048999 0.001415 0.025185 0.006623
0.976187 0.000898 0.003371 0.004935 0.013365 0.021922 0.011252 0.073446 0.007693
0.992968 0.000924 0.005824 0.005067 0.001536 0.046752 0.009615 0.027591 0.005488
0.989277 0.000719 0.001723 0.003584 0.004583 0.060795 0.001422 0.054612 0.017668
0.928976 0.005285 0.016689 0.003887 0.033247 0.034002 0.006573 0.052504 0.051376
0.991236 0.000221 0.002067 0.002467 0.003478 0.033523 0.001402 0.131028 0.005953
0.992733 0.001036 0.001308 0.002090 0.000598 0.056878 0.003696 0.045519 0.004604
0.863958 0.003281 0.262536 0.794234 0.056519 0.010524 0.101022 0.053290 0.007914
0.989574 0.000404 0.001179 0.001669 0.004287 0.021905 0.001328 0.061297 0.005440
0.972220 0.002843 0.006342 0.008928 0.006265 0.070923 0.003467 0.027203 0.013538
0.913400 0.000633 0.006497 0.002411 0.177684 0.078091 0.003062 0.016398 0.022767
0.947039 0.033546 0.001251 0.005886 0.003716 0.116587 0.003073 0.048786 0.010657
0.944505 0.004198 0.690762 0.001047 0.005546 0.010535 0.001406 0.007878 0.003897
0.961384 0.001753 0.001746 0.013756 0.002356 0.159578 0.005282 0.163512 0.006684
0.975106 0.001326 0.006110 0.009259 0.027364 0.061794 0.002311 0.092501 0.006726
0.995391 0.000368 0.000854 0.001131 0.000863 0.038501 0.001565 0.020277 0.005346
0.134393 0.923153 0.018108 0.024604 0.075801 0.038224 0.010191 0.073951 0.002971
0.365501 0.004065 0.057821 0.091906 0.864905 0.014164 0.449990 0.081828 0.018470
0.883779 0.053118 0.123720 0.006586 0.011520 0.076154 0.005100 0.028099 0.004458
0.993632 0.000101 0.001304 0.001203 0.005645 0.032755 0.000849 0.014152 0.011925
0.976663 0.000955 0.005223 0.001867 0.004964 0.031743 0.001435 0.015222 0.004855
0.953408 0.001541 0.078065 0.002947 0.042197 0.023687 0.002283 0.020595 0.012561
0.991181 0.000122 0.001802 0.000746 0.008363 0.033401 0.001699 0.010911 0.012547
0.978254 0.000288 0.001741 0.017106 0.102128 0.031602 0.003040 0.016941 0.044907
0.952658 0.000694 0.012535 0.004101 0.089796 0.036595 0.000939 0.005377 0.016830
0.963434 0.000111 0.008492 0.014223 0.018126 0.021652 0.006303 0.017129 0.071393
0.849877 0.012586 0.374711 0.056364 0.175544 0.010080 0.005182 0.060761 0.008076
0.174312 0.513379 0.099354 0.015914 0.381245 0.008298 0.040843 0.051217 0.003997
0.994606 0.000234 0.006091 0.002482 0.019416 0.020770 0.001452 0.011271 0.011930
0.848387 0.036633 0.051659 0.017138 0.018552 0.118310 0.003483 0.010827 0.008313
0.946000 0.000929 0.000727 0.002656 0.026398 0.044818 0.006623 0.088899 0.006250
0.826602 0.001694 0.001266 0.003196 0.502120 0.059072 0.007626 0.021283 0.010589
0.938052 0.000790 0.005265 0.005837 0.067933 0.067372 0.001173 0.083656 0.057490
0.984760 0.000253 0.003993 0.001079 0.014203 0.032745 0.000734 0.013479 0.019470
0.976591 0.000705 0.002033 0.013526 0.009514 0.037356 0.000615 0.084714 0.009831
0.968422 0.003309 0.001220 0.003988 0.003923 0.081066 0.002738 0.119265 0.009642
0.946707 0.000661 0.006982 0.049927 0.000971 0.061963 0.003114 0.136782 0.005211
0.977074 0.000247 0.004333 0.013478 0.022075 0.026400 0.000858 0.035481 0.011900
0.986419 0.000288 0.002733 0.009390 0.005564 0.047573 0.001146 0.018493 0.011139
0.915956 0.001438 0.001570 0.003207 0.215786 0.056124 0.001821 0.055496 0.008297
0.987373 0.000379 0.004239 0.005374 0.009162 0.045735 0.001153 0.066506 0.006608
0.970722 0.000397 0.004736 0.002361 0.048362 0.027329 0.000617 0.009607 0.012800
0.993571 0.000456 0.001197 0.002103 0.001765 0.049449 0.001613 0.015947 0.009092
0.990521 0.000938 0.008690 0.006048 0.012059 0.046145 0.001067 0.010792 0.009398
0.983026 0.001130 0.078985 0.012103 0.006300 0.015067 0.001709 0.045721 0.006746
0.994852 0.000294 0.002879 0.002029 0.002459 0.022921 0.000782 0.007179 0.020374
0.965182 0.000777 0.256761 0.019481 0.003799 0.015313 0.002692 0.008945 0.008288
0.986866 0.000259 0.003601 0.002788 0.019021 0.043322 0.002371 0.059790 0.012405
0.991241 0.000361 0.013091 0.003186 0.002363 0.028924 0.002407 0.017885 0.003931
0.949497 0.002928 0.059353 0.005004 0.046231 0.035564 0.004739 0.077365 0.003029
0.998478 0.000079 0.002322 0.003108 0.002071 0.017153 0.000958 0.016328 0.008357
0.978156 0.000182 0.002444 0.008051 0.026169 0.030485 0.001307 0.011173 0.041091
0.969184 0.002178 0.940758 0.001223 0.002642 0.008961 0.001554 0.006325 0.002502
0.272306 0.708127 0.445768 0.012333 0.003991 0.075260 0.018684 0.093326 0.001183
0.977721 0.001975 0.005778 0.002319 0.007815 0.047473 0.001496 0.007182 0.011741
0.758007 0.059256 0.369687 0.144403 0.009583 0.005975 0.005721 0.173638 0.005575
0.905678 0.002216 0.013545 0.058585 0.000760 0.068410 0.011145 0.154384 0.002892
0.996052 0.000085 0.001847 0.000977 0.006387 0.044057 0.000891 0.011811 0.013360
0.166880 0.935639 0.005428 0.037185 0.121834 0.119247 0.035878 0.159504 0.005617
0.984827 0.000398 0.006056 0.030422 0.004477 0.021197 0.001526 0.041935 0.007271
0.997613 0.000059 0.000806 0.001395 0.000717 0.024979 0.001052 0.038525 0.006403
0.658588 0.001197 0.002192 0.002913 0.897693 0.030072 0.024783 0.030132 0.009950
0.899790 0.009937 0.582784 0.040063 0.037568 0.013215 0.012774 0.205666 0.006197
0.986094 0.000384 0.001274 0.004691 0.003003 0.017956 0.000619 0.182673 0.007201
0.975515 0.001694 0.030313 0.003735 0.003258 0.032900 0.001089 0.007934 0.011143
0.986571 0.000274 0.003101 0.001999 0.009254 0.029023 0.001353 0.023007 0.007680
0.991983 0.000943 0.003013 0.002549 0.006448 0.052381 0.001174 0.010419 0.009307
0.993181 0.000357 0.018395 0.001840 0.011235 0.015677 0.000728 0.004499 0.010553
0.084977 0.969445 0.015329 0.017387 0.019170 0.108293 0.017394 0.103193 0.002806
0.995410 0.000438 0.003692 0.002962 0.005247 0.039635 0.001605 0.016965 0.004954
0.324356 0.003115 0.005858 0.006268 0.893792 0.023248 0.042585 0.023566 0.010289
0.914979 0.036456 0.022889 0.001838 0.003614 0.064238 0.001980 0.035840 0.001595
0.981907 0.000760 0.002245 0.002931 0.004603 0.035784 0.001326 0.005352 0.005544
0.967970 0.001489 0.108979 0.013912 0.051576 0.018436 0.001860 0.003066 0.016448
0.917260 0.002857 0.032352 0.026573 0.001367 0.050856 0.923373 0.011807 0.001437
0.964606 0.000610 0.006696 0.021973 0.001356 0.029050 0.002392 0.148523 0.003721
0.995557 0.000096 0.001972 0.004464 0.001116 0.020143 0.001004 0.009198 0.005932
0.982370 0.000388 0.016718 0.072039 0.003464 0.019993 0.001560 0.167932 0.005748
0.987430 0.000613 0.047266 0.003971 0.015607 0.028710 0.001337 0.019240 0.006696
0.722340 0.035734 0.697643 0.041379 0.081540 0.018697 0.061195 0.080060 0.005852
0.571951 0.014302 0.678017 0.236183 0.006850 0.014267 0.978787 0.046894 0.001737
0.653836 0.026533 0.036747 0.046978 0.016412 0.049906 0.237573 0.248985 0.034503
0.990520 0.000096 0.005480 0.005086 0.008134 0.038736 0.002332 0.014759 0.042599
0.984507 0.000661 0.158764 0.002945 0.007607 0.009752 0.000884 0.002890 0.007784
0.992923 0.000193 0.001443 0.000833 0.007499 0.035345 0.001491 0.043370 0.005216
0.992898 0.000294 0.001364 0.001194 0.006611 0.022480 0.001035 0.037255 0.009617
0.972826 0.002633 0.238286 0.004404 0.017541 0.033678 0.023573 0.021988 0.009805
0.983479 0.000621 0.029750 0.005546 0.001479 0.046016 0.006172 0.009804 0.002484
0.977448 0.000435 0.007373 0.023662 0.005642 0.019595 0.001497 0.022365 0.006682
0.993155 0.000124 0.001573 0.003207 0.002256 0.010550 0.000650 0.009832 0.006713
0.930090 0.005273 0.035604 0.010427 0.008370 0.061673 0.003198 0.052855 0.007779
0.971488 0.001826 0.001614 0.000803 0.009542 0.030933 0.001241 0.036343 0.004954
0.084790 0.967746 0.064181 0.013954 0.003264 0.039953 0.007424 0.044866 0.001673
0.989364 0.000209 0.000745 0.000423 0.002516 0.022886 0.000788 0.028653 0.009047
0.947665 0.002422 0.071880 0.007398 0.057192 0.047870 0.003871 0.071600 0.007317
0.970693 0.000931 0.027794 0.002890 0.002639 0.021613 0.000831 0.012868 0.016669
0.996957 0.000095 0.001425 0.002536 0.001458 0.012719 0.000939 0.022672 0.012245
0.997651 0.000111 0.002834 0.002081 0.002012 0.021673 0.000754 0.016163 0.008411
0.950764 0.000528 0.000927 0.000937 0.251074 0.046606 0.001179 0.010010 0.014293
0.988979 0.001145 0.035743 0.006893 0.001149 0.023668 0.006758 0.042143 0.005877
0.982679 0.000356 0.010960 0.029105 0.005224 0.011525 0.002182 0.034414 0.005278
0.389282 0.080913 0.414651 0.031213 0.891238 0.009545 0.145853 0.013861 0.006643
0.981067 0.000824 0.001013 0.000503 0.011548 0.024498 0.000736 0.014694 0.007844
0.976742 0.001316 0.005165 0.010949 0.004110 0.031177 0.008291 0.106507 0.009660
0.959250 0.005010 0.005334 0.015775 0.051570 0.066067 0.009159 0.069432 0.027622
0.975429 0.000548 0.018494 0.014129 0.020630 0.025031 0.060001 0.015756 0.010723
0.780415 0.000861 0.023187 0.007857 0.047357 0.045377 0.912048 0.003268 0.003330
0.983411 0.000338 0.004244 0.013493 0.010032 0.046668 0.002324 0.023921 0.010737
0.988120 0.000659 0.016178 0.005911 0.010831 0.017185 0.000880 0.011864 0.018596
0.985257 0.000226 0.002871 0.003496 0.014618 0.052265 0.000801 0.033834 0.014200
0.915748 0.007129 0.005012 0.009416 0.039233 0.037107 0.001756 0.022775 0.010274
0.954703 0.002016 0.008726 0.005304 0.001287 0.129785 0.003089 0.048925 0.004624
0.327327 0.066287 0.013529 0.007518 0.893884 0.044456 0.086427 0.107367 0.007517
0.989065 0.000974 0.026447 0.009389 0.004853 0.026616 0.004059 0.086802 0.007723
0.998551 0.000063 0.002701 0.001653 0.002300 0.020754 0.001427 0.011263 0.011734
0.988632 0.000128 0.002166 0.006151 0.016557 0.020664 0.000875 0.026592 0.018041
0.987541 0.000478 0.008337 0.001970 0.009675 0.027012 0.001159 0.010380 0.006358
0.997547 0.000088 0.001047 0.001428 0.000792 0.016625 0.000659 0.017963 0.009342
0.885008 0.008139 0.676956 0.005604 0.046288 0.025777 0.003026 0.009283 0.020685
0.993856 0.000112 0.002436 0.002246 0.008365 0.020741 0.001955 0.010752 0.017456
0.977767 0.000907 0.000966 0.001155 0.015419 0.041578 0.002292 0.034405 0.014251
0.962074 0.002504 0.003309 0.002592 0.004092 0.078917 0.002987 0.027157 0.008125
0.872447 0.008188 0.821468 0.006904 0.018676 0.018922 0.002329 0.016705 0.004643
0.979046 0.000939 0.012620 0.002364 0.011111 0.032873 0.001222 0.005507 0.008056
0.968619 0.000204 0.009961 0.025681 0.007719 0.033680 0.001955 0.014753 0.031774
0.963940 0.000436 0.000923 0.000993 0.013726 0.026121 0.000758 0.039489 0.003740
0.527999 0.010375 0.118037 0.976269 0.112635 0.007158 0.111582 0.013880 0.019720
0.661199 0.001534 0.021868 0.004719 0.950302 0.013156 0.016070 0.009726 0.005493
0.506619 0.046797 0.028439 0.030903 0.020196 0.418798 0.023356 0.023650 0.002885
0.923997 0.025711 0.042066 0.004554 0.006407 0.194109 0.004297 0.006489 0.003880
0.995924 0.000196 0.005583 0.014788 0.001024 0.022854 0.002356 0.043397 0.007133
0.953936 0.000860 0.021805 0.441886 0.013146 0.025591 0.008036 0.174801 0.026479
0.991427 0.000154 0.003413 0.001874 0.012323 0.017088 0.000734 0.005196 0.028295
0.987489 0.002194 0.001091 0.002760 0.000588 0.035236 0.004534 0.079629 0.006099
0.945945 0.001015 0.086323 0.097998 0.001372 0.021324 0.003696 0.045973 0.006486
0.535103 0.045284 0.007047 0.009987 0.125329 0.051312 0.004502 0.186817 0.004802
0.598182 0.000686 0.003418 0.002242 0.944525 0.017709 0.014922 0.006901 0.004969
0.910799 0.001046 0.132836 0.982971 0.055722 0.004989 0.020703 0.018104 0.040866
0.991849 0.000304 0.001794 0.002335 0.003453 0.023717 0.000907 0.074146 0.012482
0.989747 0.000527 0.003427 0.001274 0.005754 0.053622 0.003892 0.051727 0.008874
0.993227 0.000101 0.005754 0.003207 0.009522 0.022511 0.000667 0.002347 0.015903
0.953068 0.002161 0.000501 0.002131 0.022110 0.104047 0.004975 0.029173 0.018133
0.966922 0.000771 0.028336 0.003840 0.124156 0.028533 0.003014 0.008929 0.015586
0.969417 0.000827 0.001340 0.000961 0.044093 0.046047 0.000997 0.011189 0.033545
0.988004 0.000574 0.001841 0.005008 0.006175 0.053636 0.002048 0.031351 0.032762
0.986183 0.000161 0.020744 0.008130 0.006949 0.012237 0.001240 0.004302 0.008201
0.987485 0.000140 0.002065 0.000935 0.004065 0.023698 0.001559 0.008674 0.007960
0.123195 0.830211 0.020130 0.008123 0.373161 0.056944 0.011385 0.100321 0.005183
0.097404 0.951304 0.008731 0.223292 0.001179 0.077614 0.039481 0.142467 0.003257
0.247287 0.034261 0.823300 0.100766 0.662402 0.002641 0.882331 0.025734 0.006071
0.992656 0.000193 0.003350 0.001238 0.006045 0.012932 0.000548 0.004834 0.006029
0.961973 0.000711 0.003277 0.001617 0.037545 0.028522 0.001097 0.011642 0.011406
0.108553 0.772533 0.019184 0.015679 0.101293 0.109343 0.026650 0.096438 0.008546
0.945258 0.002059 0.177405 0.001130 0.013626 0.012382 0.001529 0.005328 0.006632
0.397262 0.858247 0.011329 0.010899 0.004032 0.189237 0.046461 0.090789 0.003841
0.932274 0.001703 0.030163 0.003504 0.088917 0.024263 0.002436 0.014000 0.145372
0.975089 0.000332 0.001225 0.001037 0.023818 0.029007 0.000801 0.018769 0.006067
0.974810 0.004912 0.010614 0.001586 0.002366 0.030604 0.000906 0.008777 0.022479
0.036422 0.664362 0.021714 0.213091 0.704252 0.003484 0.764960 0.032239 0.010079
0.972969 0.000329 0.007186 0.000551 0.024346 0.035707 0.001411 0.010996 0.026097
0.915788 0.002139 0.110665 0.007607 0.060136 0.043570 0.001988 0.017681 0.013517
0.621942 0.032650 0.569191 0.030510 0.016357 0.013074 0.002479 0.056292 0.002460
0.981447 0.000712 0.002536 0.011125 0.010531 0.034760 0.000741 0.020958 0.005954
0.026139 0.974094 0.012249 0.121113 0.194102 0.024766 0.080513 0.097991 0.008950
0.954952 0.001081 0.009228 0.003882 0.058150 0.031034 0.001565 0.013651 0.005229
0.152266 0.945498 0.033048 0.063670 0.058663 0.058688 0.012221 0.125916 0.003909
0.638566 0.007794 0.060346 0.323353 0.011996 0.046912 0.408946 0.048440 0.004279
0.945199 0.000350 0.004316 0.002569 0.167073 0.026622 0.001037 0.006371 0.022413
0.983330 0.000799 0.003582 0.005234 0.028953 0.043424 0.006208 0.017806 0.007462
0.995023 0.000068 0.002021 0.001500 0.002434 0.017080 0.000821 0.005410 0.033136
0.869641 0.000408 0.001772 0.080635 0.000618 0.040558 0.928595 0.011263 0.004474
0.987337 0.000093 0.001429 0.000971 0.005243 0.016709 0.000476 0.008177 0.027492
0.967731 0.000917 0.003105 0.002359 0.002120 0.045583 0.002196 0.035671 0.004020
0.995941 0.000381 0.002210 0.002320 0.001337 0.039640 0.001747 0.059343 0.004303
0.793923 0.002291 0.709343 0.839237 0.190380 0.002310 0.040600 0.009987 0.006046
0.991590 0.000184 0.001560 0.000973 0.005322 0.015099 0.000757 0.020150 0.005590
0.915553 0.011357 0.003094 0.007650 0.108922 0.050760 0.002744 0.027252 0.004777
0.984766 0.000363 0.002832 0.003601 0.008610 0.025325 0.000648 0.004938 0.020914
0.992304 0.000506 0.017773 0.003307 0.004045 0.015457 0.001056 0.009206 0.012191
0.984190 0.000481 0.002902 0.000825 0.004245 0.017549 0.001389 0.026260 0.033278
0.982059 0.000375 0.003419 0.004745 0.043875 0.024547 0.000737 0.003868 0.038497
0.998042 0.000045 0.001227 0.001281 0.008946 0.011629 0.000588 0.005389 0.013830
0.923726 0.014083 0.101628 0.002930 0.002368 0.115149 0.004545 0.014206 0.004325
0.966589 0.000485 0.001382 0.004474 0.030890 0.048545 0.001525 0.026961 0.016934
0.548829 0.288797 0.188207 0.008121 0.002130 0.020733 0.002682 0.021400 0.009633
0.997320 0.000143 0.008084 0.000636 0.002279 0.013541 0.000529 0.004845 0.008257
0.968592 0.000830 0.002494 0.005678 0.023843 0.047487 0.001396 0.008273 0.021580
0.991177 0.000261 0.001159 0.000882 0.003165 0.017389 0.000596 0.026102 0.008069
0.996982 0.000105 0.002781 0.001927 0.005853 0.013620 0.000422 0.004943 0.014752
0.911499 0.007114 0.003726 0.008504 0.007660 0.031628 0.002268 0.082703 0.009557
0.993601 0.000145 0.002917 0.001825 0.012561 0.014053 0.000566 0.006765 0.007146
0.995092 0.000086 0.002873 0.002165 0.001075 0.012404 0.000776 0.010194 0.007581
0.987779 0.000604 0.003695 0.005190 0.004413 0.025881 0.001518 0.045138 0.004250
0.962732 0.000881 0.007555 0.015181 0.074954 0.031428 0.000874 0.019849 0.009414
0.984527 0.000821 0.052166 0.025051 0.001787 0.016320 0.001861 0.025664 0.002945
0.953502 0.000619 0.003484 0.003782 0.087053 0.029439 0.000785 0.006850 0.046317
0.989792 0.000097 0.001108 0.001231 0.001499 0.014710 0.000902 0.013052 0.006640
0.877626 0.003579 0.252030 0.051117 0.001535 0.011512 0.625576 0.005434 0.004885
0.983394 0.000153 0.001618 0.008310 0.006912 0.023842 0.000589 0.022321 0.021465
0.977883 0.000428 0.010391 0.004798 0.005836 0.039709 0.002587 0.026644 0.004947
0.981881 0.000235 0.004504 0.009897 0.002881 0.015055 0.001768 0.040982 0.005568
0.988774 0.000075 0.004836 0.009663 0.007897 0.026275 0.000715 0.004511 0.026325
0.014608 0.998072 0.012467 0.025767 0.019501 0.039401 0.018415 0.090006 0.001537
0.980441 0.001553 0.000860 0.002375 0.004368 0.032650 0.002089 0.016270 0.013140
0.996516 0.000113 0.002218 0.005491 0.001476 0.014086 0.000671 0.025638 0.015043
0.990431 0.001363 0.002471 0.000864 0.004272 0.030362 0.001029 0.023744 0.017138
0.982930 0.000408 0.013662 0.002870 0.037852 0.026371 0.002330 0.018597 0.014978
0.983206 0.000791 0.001967 0.002203 0.005651 0.048303 0.002662 0.012023 0.005088
0.866481 0.004351 0.262080 0.992502 0.056048 0.004431 0.076634 0.023435 0.038531
0.984657 0.001603 0.001711 0.012103 0.004453 0.033541 0.001341 0.015758 0.022177
0.062700 0.985593 0.006784 0.140361 0.003857 0.187775 0.031129 0.270529 0.003595
0.975119 0.000090 0.002953 0.001598 0.016637 0.043027 0.001443 0.015701 0.038285
0.917959 0.001643 0.238352 0.085883 0.022008 0.024145 0.004066 0.030857 0.006360
0.988570 0.000178 0.002234 0.008413 0.005979 0.021608 0.000816 0.011501 0.018968
0.995556 0.000309 0.001179 0.000985 0.002590 0.024270 0.000991 0.023445 0.010973
0.987384 0.000113 0.001045 0.001106 0.007103 0.039891 0.000562 0.019838 0.046148
0.997911 0.000127 0.001574 0.002625 0.003482 0.015211 0.000674 0.006690 0.020829
0.953224 0.002597 0.665199 0.005890 0.008812 0.013882 0.003301 0.013065 0.007946
0.993698 0.000151 0.002739 0.003086 0.009780 0.019338 0.000637 0.006894 0.009279
0.995910 0.001035 0.006069 0.009094 0.002441 0.028289 0.019503 0.021184 0.008413
0.983805 0.000190 0.005848 0.006564 0.003487 0.027310 0.000958 0.010852 0.015714
0.671493 0.021125 0.025064 0.009562 0.021654 0.447247 0.565714 0.084478 0.002282
0.993477 0.000233 0.002189 0.003764 0.006037 0.033913 0.002654 0.016574 0.018868
0.991502 0.000201 0.063682 0.001700 0.002754 0.009093 0.000633 0.008766 0.006588
0.976244 0.001923 0.055441 0.011990 0.017296 0.023308 0.002489 0.056433 0.008878
0.944061 0.000483 0.006258 0.005087 0.033318 0.065495 0.001055 0.056561 0.016806
0.981206 0.000572 0.000782 0.001496 0.019092 0.031179 0.001053 0.018913 0.013454
0.851794 0.029552 0.786221 0.008634 0.038958 0.020482 0.002553 0.055633 0.006783
0.992327 0.000138 0.001122 0.001701 0.014626 0.024948 0.000914 0.012631 0.014649
0.977354 0.000376 0.007569 0.002650 0.020090 0.030950 0.001800 0.006550 0.007478
0.986010 0.000853 0.001320 0.000784 0.004770 0.029616 0.001520 0.043400 0.012593
0.180085 0.885882 0.006277 0.134799 0.001522 0.169058 0.193727 0.233572 0.002786
0.995603 0.000212 0.001734 0.005395 0.002739 0.023488 0.001636 0.013165 0.022578
0.980907 0.000424 0.001241 0.002460 0.002373 0.019513 0.000517 0.040780 0.007950
0.089201 0.707006 0.102355 0.107641 0.009621 0.015367 0.916558 0.229021 0.005482
0.994056 0.000221 0.003133 0.000618 0.003349 0.020948 0.000944 0.013473 0.007400
0.883852 0.001602 0.014793 0.002654 0.077163 0.023813 0.000674 0.019078 0.014884
0.988643 0.000264 0.001758 0.001455 0.003445 0.025494 0.000696 0.023468 0.007502
0.991914 0.001002 0.001996 0.001907 0.002533 0.036737 0.000769 0.015988 0.009783
0.993776 0.000175 0.002538 0.001135 0.001866 0.016146 0.000872 0.007504 0.013713
0.988587 0.000178 0.001305 0.002128 0.045877 0.030465 0.000922 0.005058 0.013431
0.990064 0.000399 0.029102 0.011179 0.007456 0.020380 0.007464 0.023604 0.013733
0.986699 0.000082 0.001954 0.005056 0.047374 0.024363 0.001774 0.006415 0.023777
0.764232 0.006529 0.254715 0.006961 0.291848 0.031587 0.008673 0.045905 0.017648
0.690318 0.008843 0.029877 0.063674 0.013867 0.060271 0.615810 0.157093 0.002661
0.992709 0.000193 0.001280 0.001242 0.010942 0.049638 0.001088 0.012614 0.005559
0.199157 0.409915 0.073527 0.037977 0.026170 0.066888 0.675842 0.072063 0.004933
0.989748 0.000444 0.008769 0.003012 0.005186 0.038919 0.001972 0.016512 0.006021
0.512673 0.651805 0.005904 0.009995 0.016846 0.048585 0.304975 0.058732 0.008653
0.983447 0.000345 0.005719 0.002049 0.028059 0.056094 0.002152 0.012840 0.005263
0.980257 0.000202 0.009746 0.005634 0.007377 0.013662 0.000736 0.005793 0.008854
0.989705 0.000728 0.003238 0.004439 0.009866 0.035672 0.001077 0.018994 0.032237
0.573223 0.048868 0.525861 0.912876 0.136044 0.007534 0.731022 0.015679 0.007456
0.992253 0.000260 0.005762 0.003201 0.003433 0.022189 0.000811 0.003039 0.007780
0.719445 0.124185 0.003105 0.022887 0.001002 0.178429 0.040607 0.075231 0.004287
0.965933 0.000218 0.002740 0.003314 0.011519 0.023833 0.001329 0.017831 0.007113
0.971318 0.001248 0.002841 0.003223 0.002436 0.185497 0.006606 0.035510 0.003936
0.996078 0.000203 0.003730 0.006694 0.002383 0.023032 0.001220 0.028265 0.028941
0.977751 0.000951 0.061113 0.016750 0.007842 0.043803 0.004532 0.018827 0.010769
0.990427 0.001152 0.006320 0.008387 0.009770 0.034358 0.003669 0.041418 0.012364
0.986498 0.000209 0.003215 0.002025 0.006970 0.026331 0.001116 0.029202 0.006407
0.839213 0.018917 0.002932 0.023733 0.116924 0.099028 0.015216 0.049809 0.010894
0.971947 0.011784 0.010000 0.004495 0.001588 0.078345 0.005470 0.029197 0.008753
0.944914 0.000390 0.003601 0.005356 0.508907 0.040935 0.002592 0.015539 0.014218
0.996266 0.000206 0.003325 0.005256 0.003790 0.023946 0.001236 0.049860 0.008228
0.998508 0.000070 0.001485 0.001090 0.001079 0.017038 0.000646 0.008470 0.011174
0.984613 0.000578 0.006729 0.003180 0.002657 0.055241 0.002706 0.026047 0.009618
0.890182 0.097814 0.281731 0.003037 0.000775 0.153656 0.006639 0.015153 0.002632
0.958871 0.000775 0.016892 0.011445 0.055237 0.038158 0.006557 0.030797 0.017518
0.993955 0.001274 0.121207 0.003902 0.001321 0.019791 0.000990 0.009949 0.007237
0.977501 0.001031 0.008040 0.007205 0.014040 0.019534 0.007643 0.077145 0.017148
0.856475 0.004368 0.826294 0.006923 0.005274 0.011322 0.003022 0.017052 0.002588
0.986759 0.000972 0.000846 0.004208 0.002991 0.038855 0.004141 0.025114 0.014924
0.986364 0.002138 0.002383 0.002321 0.002768 0.048964 0.004148 0.076811 0.016124
0.994387 0.000192 0.008044 0.001715 0.004579 0.014878 0.000908 0.004816 0.028179
0.951326 0.000931 0.001081 0.001927 0.006219 0.055863 0.232344 0.052430 0.003633
0.037052 0.957407 0.022989 0.114961 0.041727 0.030051 0.274710 0.241044 0.005823
0.993562 0.000379 0.002670 0.001850 0.015001 0.023086 0.002286 0.051190 0.020530
0.982450 0.000285 0.025000 0.001430 0.008227 0.015670 0.001248 0.006943 0.008622
0.976346 0.000509 0.077466 0.002439 0.009752 0.017464 0.001295 0.006053 0.012791
0.943205 0.004173 0.337022 0.010989 0.008483 0.020426 0.018635 0.110690 0.005144
0.908387 0.012618 0.715359 0.005642 0.015559 0.016708 0.001934 0.005186 0.006477
0.957344 0.000666 0.009766 0.135354 0.003192 0.027991 0.857740 0.023977 0.005408
0.991040 0.000235 0.003590 0.001882 0.006718 0.027856 0.001332 0.022624 0.004360
0.257102 0.407707 0.057536 0.024771 0.071531 0.158886 0.099135 0.039018 0.002252
0.030039 0.949116 0.028154 0.047516 0.072838 0.019045 0.624112 0.097956 0.002203
0.975106 0.001436 0.003732 0.002244 0.053390 0.048001 0.001754 0.049224 0.007220
0.919668 0.000379 0.002074 0.003175 0.434076 0.031256 0.001158 0.006461 0.016953
0.995529 0.000243 0.001133 0.001442 0.001526 0.021641 0.002817 0.023962 0.016467
0.977526 0.000494 0.009050 0.017020 0.025077 0.062815 0.001576 0.065060 0.007582
0.996965 0.000043 0.002476 0.002297 0.001400 0.014146 0.000740 0.008155 0.009201
0.987881 0.000226 0.002893 0.001956 0.008689 0.018248 0.000731 0.011438 0.008934
0.994495 0.000268 0.000866 0.002941 0.001143 0.019500 0.000736 0.052351 0.005396
0.970126 0.004254 0.000924 0.002420 0.003047 0.026281 0.000763 0.015875 0.011390
0.948550 0.002343 0.003905 0.006226 0.071930 0.036233 0.003362 0.028320 0.027345
0.937809 0.000764 0.011314 0.002128 0.520367 0.043934 0.003482 0.004548 0.005283
0.627811 0.158233 0.106963 0.063991 0.155774 0.042464 0.024903 0.140476 0.037754
0.863486 0.017987 0.001114 0.057293 0.000635 0.635083 0.042095 0.172600 0.003374
0.963637 0.000194 0.004546 0.010196 0.000846 0.013463 0.965643 0.008374 0.001492
0.724069 0.002340 0.001470 0.018222 0.001806 0.178782 0.917633 0.018476 0.001458
0.968593 0.001120 0.010017 0.043340 0.006788 0.014356 0.001519 0.029568 0.007446
0.918472 0.001699 0.004364 0.004661 0.399211 0.026388 0.002338 0.012554 0.012498
0.100158 0.488994 0.125050 0.013180 0.862841 0.011897 0.065434 0.023071 0.007696
0.987189 0.000719 0.002373 0.001724 0.003212 0.025418 0.001261 0.063637 0.004467
0.997232 0.000052 0.003169 0.002359 0.001315 0.012238 0.002562 0.016484 0.011068
0.987269 0.000149 0.002316 0.003348 0.030789 0.035392 0.001722 0.009197 0.026132
0.097258 0.037958 0.359188 0.249679 0.419772 0.002014 0.815151 0.031442 0.038155
0.908824 0.000478 0.003775 0.001266 0.327588 0.034997 0.001566 0.021847 0.016976
0.787953 0.018708 0.072006 0.004668 0.060992 0.137879 0.006003 0.015358 0.006771
0.989619 0.000100 0.001193 0.002057 0.016989 0.015558 0.000867 0.008249 0.014346
0.987617 0.000243 0.013563 0.002287 0.007179 0.016546 0.000575 0.005164 0.010367
0.925782 0.006853 0.238358 0.003925 0.049812 0.044502 0.006699 0.012931 0.002875
0.988794 0.000246 0.002109 0.004529 0.009099 0.027328 0.000806 0.020501 0.009698
0.988379 0.000130 0.001793 0.001197 0.022036 0.026952 0.000966 0.026593 0.007158
0.989898 0.000534 0.003168 0.003735 0.020704 0.018620 0.001282 0.012245 0.031271
0.942227 0.001487 0.004124 0.006361 0.000781 0.079054 0.003685 0.088235 0.004391
0.722587 0.023779 0.001245 0.046933 0.001604 0.601557 0.088091 0.080094 0.003733
0.982091 0.001555 0.012347 0.001690 0.003829 0.043636 0.001061 0.022639 0.015651
0.921213 0.006677 0.179857 0.232683 0.006729 0.018524 0.004432 0.062891 0.004485
0.981547 0.000422 0.002408 0.004649 0.009253 0.036099 0.003495 0.024469 0.010580
0.823436 0.010601 0.305154 0.032884 0.126210 0.010982 0.123295 0.019345 0.008300
0.974654 0.000111 0.000909 0.003046 0.107334 0.020352 0.001041 0.012157 0.022552
0.995805 0.000090 0.002323 0.014164 0.001056 0.012562 0.001749 0.009204 0.008035
0.407132 0.718241 0.146098 0.006820 0.024601 0.171715 0.040436 0.103887 0.003654
0.907705 0.003106 0.465398 0.065210 0.014953 0.021154 0.004220 0.074024 0.003160
0.585404 0.082355 0.001655 0.133659 0.001235 0.533419 0.043281 0.178072 0.006631
0.992152 0.000224 0.002844 0.005989 0.010887 0.025984 0.000582 0.023140 0.060187
0.743716 0.009898 0.435837 0.970725 0.061023 0.021004 0.703078 0.009917 0.014335
0.899371 0.001568 0.018886 0.003972 0.208299 0.069309 0.003573 0.011278 0.005887
0.987200 0.000281 0.002107 0.008909 0.007545 0.019459 0.001056 0.065131 0.008321
0.966914 0.004996 0.021309 0.001723 0.016301 0.028219 0.001214 0.006917 0.012284
0.969734 0.000617 0.003862 0.002600 0.044714 0.077120 0.003541 0.060851 0.014651
0.983776 0.000477 0.002136 0.001823 0.018634 0.035107 0.000800 0.009571 0.009407
0.956250 0.001665 0.007901 0.002365 0.024490 0.029713 0.002103 0.010125 0.010063
0.983006 0.002641 0.117971 0.014031 0.005076 0.028503 0.002238 0.012259 0.011560
0.948601 0.005775 0.005303 0.028558 0.000651 0.018103 0.002638 0.045963 0.003072
0.978371 0.000317 0.001414 0.001026 0.005027 0.019812 0.000836 0.016148 0.006497
0.959360 0.001533 0.051804 0.007617 0.012545 0.015198 0.001686 0.010572 0.002927
0.987017 0.000403 0.003597 0.004843 0.009465 0.029468 0.001478 0.005513 0.006091
0.876153 0.002529 0.039579 0.052913 0.164698 0.065433 0.002434 0.015590 0.009456
0.994502 0.000132 0.002544 0.002321 0.010945 0.024124 0.000578 0.008560 0.009606
0.941550 0.006191 0.008957 0.008068 0.020171 0.025071 0.001727 0.038904 0.007239
0.985779 0.000216 0.001486 0.003211 0.010988 0.055179 0.001379 0.013256 0.033378
0.975601 0.000393 0.004335 0.002609 0.055048 0.041449 0.000889 0.004252 0.008393
0.991374 0.001181 0.169601 0.001521 0.010025 0.023163 0.001001 0.010468 0.007692
0.958321 0.000735 0.001826 0.003111 0.002555 0.014811 0.004991 0.157779 0.003347
0.035372 0.961100 0.049680 0.067504 0.029743 0.029088 0.462556 0.061266 0.001557
0.985689 0.000665 0.001547 0.001326 0.003683 0.021227 0.000648 0.018745 0.024578
0.993287 0.000123 0.002360 0.000778 0.006489 0.019983 0.000800 0.006056 0.006786
0.478213 0.006927 0.052753 0.010874 0.903436 0.036940 0.028462 0.011582 0.006702
0.980987 0.000448 0.008327 0.004125 0.010854 0.013902 0.000778 0.006292 0.005699
0.964433 0.001329 0.014934 0.012101 0.017915 0.032667 0.002006 0.110357 0.006675
0.710266 0.012099 0.025452 0.959749 0.007052 0.202003 0.360537 0.024412 0.005643
0.987482 0.000548 0.000623 0.001366 0.002114 0.047446 0.001286 0.006583 0.012882
0.959742 0.000386 0.004712 0.002870 0.012865 0.035971 0.002466 0.029551 0.005057
0.849177 0.000742 0.165487 0.955757 0.103851 0.001544 0.059596 0.010554 0.013217
0.879767 0.006309 0.228519 0.168216 0.137374 0.015796 0.004093 0.046413 0.005431
0.993558 0.000108 0.001178 0.001685 0.006985 0.027549 0.000877 0.012587 0.015942
0.898145 0.001341 0.010357 0.002246 0.602927 0.028402 0.001947 0.007658 0.007065
0.964777 0.000228 0.003516 0.004001 0.008310 0.017270 0.001023 0.066568 0.007239
0.943761 0.001054 0.215180 0.201830 0.025911 0.017934 0.002415 0.039157 0.006903
0.922422 0.001918 0.019795 0.585674 0.098582 0.020952 0.002257 0.016993 0.009574
0.944984 0.000342 0.020834 0.016418 0.051628 0.017845 0.001132 0.006189 0.026407
0.979474 0.000915 0.001806 0.004425 0.006351 0.055169 0.003167 0.075469 0.003467
0.392609 0.007398 0.127789 0.112938 0.899986 0.010773 0.216234 0.018567 0.016560
0.936919 0.003354 0.230076 0.040270 0.004856 0.027980 0.004324 0.054960 0.012501
0.568372 0.003701 0.515746 0.048712 0.590784 0.054149 0.018575 0.022357 0.050836
0.980701 0.000101 0.001269 0.001099 0.017893 0.027152 0.000459 0.011327 0.014309
0.994257 0.000101 0.002270 0.001080 0.006509 0.024252 0.000720 0.013882 0.013653
0.979074 0.000266 0.006512 0.002728 0.098036 0.026688 0.001106 0.006034 0.010549
0.954037 0.000917 0.008974 0.003741 0.106189 0.043723 0.001366 0.020744 0.003752
0.980151 0.002244 0.182380 0.019641 0.004491 0.016115 0.008690 0.016073 0.030527
0.921245 0.008486 0.130801 0.021381 0.007671 0.026338 0.002618 0.055487 0.004182
0.899216 0.008633 0.003434 0.003728 0.015324 0.046882 0.001856 0.054459 0.003218
0.997101 0.000027 0.001301 0.000403 0.001611 0.012207 0.000563 0.010282 0.014044
0.038414 0.987912 0.004493 0.078445 0.011872 0.148557 0.010417 0.132430 0.004383
0.978709 0.000215 0.002641 0.001210 0.021841 0.031786 0.000804 0.010105 0.009324
0.974936 0.000294 0.021406 0.528675 0.029321 0.010574 0.006445 0.047832 0.021047
0.313310 0.024639 0.401535 0.012808 0.883150 0.020838 0.350797 0.011847 0.005176
0.996698 0.000399 0.004314 0.002458 0.002841 0.037656 0.001057 0.016836 0.010738
0.965224 0.000308 0.001862 0.005001 0.172772 0.032049 0.001644 0.008956 0.028665
0.647254 0.001890 0.004487 0.003114 0.392118 0.033909 0.057899 0.050154 0.007735
0.904285 0.007098 0.022358 0.052768 0.001223 0.211870 0.691108 0.038880 0.001756
0.955403 0.003956 0.926809 0.014476 0.003196 0.008970 0.003197 0.012553 0.004441
0.036124 0.975756 0.007311 0.064236 0.015098 0.115846 0.019257 0.181924 0.004695
0.984301 0.000830 0.080720 0.002683 0.005013 0.017277 0.001681 0.042089 0.004924
0.949547 0.000342 0.003021 0.015156 0.014042 0.026697 0.001690 0.084921 0.012118
0.990885 0.000197 0.002790 0.004295 0.013350 0.025220 0.001067 0.022641 0.014345
0.315964 0.607853 0.053246 0.008104 0.151714 0.041113 0.004056 0.014051 0.017531
0.994145 0.000076 0.003090 0.006210 0.003640 0.024333 0.001123 0.007264 0.013974
0.568097 0.016676 0.041148 0.053903 0.309939 0.078340 0.442839 0.040250 0.007643
0.993975 0.000490 0.001872 0.002916 0.003021 0.037611 0.000688 0.019491 0.026654
0.101794 0.716217 0.011232 0.026576 0.800093 0.020256 0.119845 0.027610 0.004995
0.966040 0.001195 0.425139 0.352117 0.020451 0.006865 0.007144 0.061458 0.006908
0.992334 0.000151 0.003673 0.004301 0.005220 0.028746 0.000979 0.023775 0.008765
0.984887 0.000331 0.001608 0.001430 0.030195 0.017007 0.000630 0.005668 0.011582
0.738495 0.018687 0.039702 0.249246 0.045612 0.057600 0.011792 0.060746 0.010493
0.057138 0.487544 0.154877 0.839803 0.101207 0.021303 0.078914 0.085695 0.021949
0.783499 0.005301 0.247164 0.950189 0.196769 0.008265 0.115202 0.063195 0.033357
0.642702 0.027636 0.841934 0.010870 0.055327 0.021847 0.002472 0.028302 0.005235
0.980415 0.000232 0.001661 0.003162 0.040760 0.027298 0.001007 0.007382 0.043930
0.987164 0.000450 0.014083 0.003029 0.020180 0.038824 0.002139 0.014667 0.013462
0.969470 0.000499 0.001725 0.002551 0.174710 0.043342 0.001252 0.011427 0.013320
0.988017 0.000344 0.001840 0.002144 0.009794 0.030946 0.000608 0.021716 0.009677
0.987269 0.000872 0.016428 0.006993 0.030747 0.028186 0.001890 0.026718 0.009816
0.976970 0.001618 0.033332 0.002257 0.012130 0.035055 0.001849 0.020360 0.031975
0.991357 0.000378 0.008917 0.000936 0.005038 0.027498 0.000772 0.011125 0.034830
0.933621 0.002591 0.207659 0.011758 0.073744 0.018327 0.002739 0.006352 0.030015
0.997247 0.000163 0.001382 0.000756 0.001911 0.028431 0.000901 0.022543 0.006749
0.995103 0.000404 0.014403 0.001473 0.005824 0.017368 0.002357 0.024021 0.008002
0.982801 0.002363 0.297967 0.008115 0.005530 0.022580 0.002048 0.025501 0.007756
0.905195 0.003484 0.263517 0.029261 0.148146 0.028844 0.003353 0.059971 0.010553
0.985911 0.000531 0.004249 0.020207 0.004607 0.041186 0.004886 0.061514 0.014469
0.850757 0.001833 0.336812 0.013246 0.123967 0.051811 0.005425 0.012674 0.019676
0.946175 0.003669 0.034782 0.005014 0.018891 0.005538 0.301544 0.024089 0.002448
0.992181 0.000502 0.003505 0.002109 0.021249 0.028108 0.001049 0.007560 0.011234
0.979683 0.000420 0.004223 0.002137 0.012172 0.026829 0.001325 0.054468 0.009523
0.991132 0.000194 0.002938 0.002479 0.005968 0.027343 0.001402 0.009296 0.022672
0.879149 0.001357 0.002356 0.002546 0.346873 0.050815 0.001821 0.008251 0.011566
0.992210 0.000292 0.001414 0.000878 0.001600 0.029430 0.001017 0.013503 0.009205
0.993872 0.000090 0.002129 0.010219 0.009226 0.016201 0.001438 0.013903 0.020466
0.996052 0.000158 0.006179 0.018895 0.001257 0.026081 0.001894 0.018152 0.008840
0.994033 0.000264 0.003340 0.003015 0.002641 0.022316 0.001034 0.012907 0.006910
0.991834 0.000238 0.001079 0.002431 0.003471 0.019787 0.000996 0.011618 0.017549
0.168703 0.844381 0.029499 0.070837 0.098405 0.026238 0.007010 0.165861 0.011442
0.912499 0.004084 0.001828 0.007873 0.164997 0.053317 0.005054 0.032510 0.037490
0.997584 0.000115 0.001704 0.001055 0.001486 0.017324 0.000795 0.015327 0.007475
0.167321 0.477540 0.016216 0.007007 0.007386 0.153741 0.005039 0.061546 0.003070
0.428963 0.015457 0.076672 0.013369 0.929237 0.023136 0.065526 0.015343 0.008263
0.940110 0.004732 0.135006 0.003743 0.012596 0.076192 0.002484 0.034401 0.006274
0.427121 0.003070 0.009179 0.005394 0.943657 0.013022 0.032345 0.007185 0.005736
0.996872 0.000234 0.001375 0.000660 0.002684 0.020986 0.000987 0.038075 0.005058
0.957250 0.014810 0.613535 0.006089 0.007134 0.026247 0.012939 0.049340 0.002574
0.986389 0.000920 0.012924 0.020417 0.001207 0.041690 0.003266 0.069534 0.003835
0.975944 0.003293 0.054593 0.005767 0.010045 0.050775 0.002569 0.019177 0.005597
0.870066 0.004515 0.004181 0.010007 0.001604 0.080252 0.033840 0.083678 0.003746
0.763609 0.003226 0.004131 0.006832 0.005189 0.211407 0.364710 0.005601 0.001895
0.213455 0.504408 0.532541 0.024936 0.048990 0.022636 0.328152 0.086410 0.003598
0.994790 0.000190 0.003636 0.002736 0.001082 0.025219 0.000858 0.005890 0.004014
0.844715 0.008595 0.139163 0.016923 0.030288 0.037621 0.003817 0.117810 0.007620
0.988679 0.000143 0.002353 0.003624 0.003076 0.018480 0.001032 0.052114 0.004354
0.911006 0.009696 0.383518 0.004361 0.002964 0.020319 0.748115 0.012843 0.002086
0.971315 0.001752 0.003394 0.001615 0.010750 0.026067 0.001772 0.024600 0.039417
0.981797 0.000699 0.010354 0.004134 0.002766 0.027245 0.001751 0.015732 0.004298
0.990494 0.000422 0.022460 0.002150 0.024584 0.016965 0.000884 0.005502 0.006841
0.942444 0.003391 0.002160 0.001175 0.017388 0.026660 0.001634 0.058735 0.006902
